"# Channel 3"
"# Trace 1"
Frequency, Formatted Data, Formatted Data
+3.00000000000E+005, -6.95454140919E-008, +0.00000000000E+000
+2.17481250000E+006, -4.92148394420E-008, +0.00000000000E+000
+4.04962500000E+006, -2.97211359126E-008, +0.00000000000E+000
+5.92443750000E+006, -1.99409292660E-008, +0.00000000000E+000
+7.79925000000E+006, -1.41340767124E-008, +0.00000000000E+000
+9.67406250000E+006, -1.02533347326E-008, +0.00000000000E+000
+1.15488750000E+007, -7.62400291563E-009, +0.00000000000E+000
+1.34236875000E+007, -5.67555873680E-009, +0.00000000000E+000
+1.52985000000E+007, -4.08161424528E-009, +0.00000000000E+000
+1.71733125000E+007, -2.68543709339E-009, +0.00000000000E+000
+1.90481250000E+007, -1.24469257142E-009, +0.00000000000E+000
+2.09229375000E+007, +5.83122840998E-010, +0.00000000000E+000
+2.27977500000E+007, +3.30549932774E-009, +0.00000000000E+000
+2.46725625000E+007, +7.68763670672E-009, +0.00000000000E+000
+2.65473750000E+007, +1.17435186392E-008, +0.00000000000E+000
+2.84221875000E+007, +1.30928460808E-008, +0.00000000000E+000
+3.02970000000E+007, +1.40152664409E-008, +0.00000000000E+000
+3.21718125000E+007, +1.44878567306E-008, +0.00000000000E+000
+3.40466250000E+007, +1.47866396628E-008, +0.00000000000E+000
+3.59214375000E+007, +1.50661239577E-008, +0.00000000000E+000
+3.77962500000E+007, +1.52245473511E-008, +0.00000000000E+000
+3.96710625000E+007, +1.53315460408E-008, +0.00000000000E+000
+4.15458750000E+007, +1.53998710590E-008, +0.00000000000E+000
+4.34206875000E+007, +1.54358480138E-008, +0.00000000000E+000
+4.52955000000E+007, +1.54891566063E-008, +0.00000000000E+000
+4.71703125000E+007, +1.55265653410E-008, +0.00000000000E+000
+4.90451250000E+007, +1.55642456198E-008, +0.00000000000E+000
+5.09199375000E+007, +1.55694582589E-008, +0.00000000000E+000
+5.27947500000E+007, +1.55710529323E-008, +0.00000000000E+000
+5.46695625000E+007, +1.55298406724E-008, +0.00000000000E+000
+5.65443750000E+007, +1.54783288895E-008, +0.00000000000E+000
+5.84191875000E+007, +1.53635222074E-008, +0.00000000000E+000
+6.02940000000E+007, +1.52159512668E-008, +0.00000000000E+000
+6.21688125000E+007, +1.49421066407E-008, +0.00000000000E+000
+6.40436250000E+007, +1.45307384370E-008, +0.00000000000E+000
+6.59184375000E+007, +1.39218763411E-008, +0.00000000000E+000
+6.77932500000E+007, +1.29580348301E-008, +0.00000000000E+000
+6.96680625000E+007, +1.17124350707E-008, +0.00000000000E+000
+7.15428750000E+007, +1.04015503659E-008, +0.00000000000E+000
+7.34176875000E+007, +9.41312164978E-009, +0.00000000000E+000
+7.52925000000E+007, +8.69141977195E-009, +0.00000000000E+000
+7.71673125000E+007, +8.27391859700E-009, +0.00000000000E+000
+7.90421250000E+007, +7.92011506466E-009, +0.00000000000E+000
+8.09169375000E+007, +7.76457718113E-009, +0.00000000000E+000
+8.27917500000E+007, +7.58582540601E-009, +0.00000000000E+000
+8.46665625000E+007, +7.49186170045E-009, +0.00000000000E+000
+8.65413750000E+007, +7.45159781519E-009, +0.00000000000E+000
+8.84161875000E+007, +7.39466506620E-009, +0.00000000000E+000
+9.02910000000E+007, +7.39777479033E-009, +0.00000000000E+000
+9.21658125000E+007, +7.39168144563E-009, +0.00000000000E+000
+9.40406250000E+007, +7.40584673893E-009, +0.00000000000E+000
+9.59154375000E+007, +7.43208430062E-009, +0.00000000000E+000
+9.77902500000E+007, +7.47454286640E-009, +0.00000000000E+000
+9.96650625000E+007, +7.52643705562E-009, +0.00000000000E+000
+1.01539875000E+008, +7.58681685943E-009, +0.00000000000E+000
+1.03414687500E+008, +7.65898514553E-009, +0.00000000000E+000
+1.05289500000E+008, +7.74873331652E-009, +0.00000000000E+000
+1.07164312500E+008, +7.83315090469E-009, +0.00000000000E+000
+1.09039125000E+008, +7.94807412201E-009, +0.00000000000E+000
+1.10913937500E+008, +8.06707655276E-009, +0.00000000000E+000
+1.12788750000E+008, +8.18470050348E-009, +0.00000000000E+000
+1.14663562500E+008, +8.32557882749E-009, +0.00000000000E+000
+1.16538375000E+008, +8.48642272403E-009, +0.00000000000E+000
+1.18413187500E+008, +8.64002092631E-009, +0.00000000000E+000
+1.20288000000E+008, +8.79313880540E-009, +0.00000000000E+000
+1.22162812500E+008, +8.97866169794E-009, +0.00000000000E+000
+1.24037625000E+008, +9.14563213340E-009, +0.00000000000E+000
+1.25912437500E+008, +9.32775337863E-009, +0.00000000000E+000
+1.27787250000E+008, +9.48744242558E-009, +0.00000000000E+000
+1.29662062500E+008, +9.65518677432E-009, +0.00000000000E+000
+1.31536875000E+008, +9.81518918594E-009, +0.00000000000E+000
+1.33411687500E+008, +9.95458762727E-009, +0.00000000000E+000
+1.35286500000E+008, +1.00995801285E-008, +0.00000000000E+000
+1.37161312500E+008, +1.02180582976E-008, +0.00000000000E+000
+1.39036125000E+008, +1.03340532749E-008, +0.00000000000E+000
+1.40910937500E+008, +1.04291405075E-008, +0.00000000000E+000
+1.42785750000E+008, +1.05097786921E-008, +0.00000000000E+000
+1.44660562500E+008, +1.05782087928E-008, +0.00000000000E+000
+1.46535375000E+008, +1.06254132522E-008, +0.00000000000E+000
+1.48410187500E+008, +1.06555695438E-008, +0.00000000000E+000
+1.50285000000E+008, +1.06617271207E-008, +0.00000000000E+000
+1.52159812500E+008, +1.06592185927E-008, +0.00000000000E+000
+1.54034625000E+008, +1.06408512812E-008, +0.00000000000E+000
+1.55909437500E+008, +1.05960318062E-008, +0.00000000000E+000
+1.57784250000E+008, +1.05296764495E-008, +0.00000000000E+000
+1.59659062500E+008, +1.04654705514E-008, +0.00000000000E+000
+1.61533875000E+008, +1.03685473463E-008, +0.00000000000E+000
+1.63408687500E+008, +1.02469543800E-008, +0.00000000000E+000
+1.65283500000E+008, +1.01208097346E-008, +0.00000000000E+000
+1.67158312500E+008, +9.99014049150E-009, +0.00000000000E+000
+1.69033125000E+008, +9.82308171877E-009, +0.00000000000E+000
+1.70907937500E+008, +9.66942638959E-009, +0.00000000000E+000
+1.72782750000E+008, +9.48796250672E-009, +0.00000000000E+000
+1.74657562500E+008, +9.31497875532E-009, +0.00000000000E+000
+1.76532375000E+008, +9.13686023448E-009, +0.00000000000E+000
+1.78407187500E+008, +8.95960890493E-009, +0.00000000000E+000
+1.80282000000E+008, +8.78332462924E-009, +0.00000000000E+000
+1.82156812500E+008, +8.62425724938E-009, +0.00000000000E+000
+1.84031625000E+008, +8.46024082710E-009, +0.00000000000E+000
+1.85906437500E+008, +8.29801213477E-009, +0.00000000000E+000
+1.87781250000E+008, +8.15161065095E-009, +0.00000000000E+000
+1.89656062500E+008, +8.00423736121E-009, +0.00000000000E+000
+1.91530875000E+008, +7.87532392757E-009, +0.00000000000E+000
+1.93405687500E+008, +7.75338908429E-009, +0.00000000000E+000
+1.95280500000E+008, +7.64482946863E-009, +0.00000000000E+000
+1.97155312500E+008, +7.54730809247E-009, +0.00000000000E+000
+1.99030125000E+008, +7.44397206949E-009, +0.00000000000E+000
+2.00904937500E+008, +7.36133752726E-009, +0.00000000000E+000
+2.02779750000E+008, +7.27365651146E-009, +0.00000000000E+000
+2.04654562500E+008, +7.21300106366E-009, +0.00000000000E+000
+2.06529375000E+008, +7.14955437513E-009, +0.00000000000E+000
+2.08404187500E+008, +7.08500005006E-009, +0.00000000000E+000
+2.10279000000E+008, +7.04013732392E-009, +0.00000000000E+000
+2.12153812500E+008, +6.99682588928E-009, +0.00000000000E+000
+2.14028625000E+008, +6.95858402313E-009, +0.00000000000E+000
+2.15903437500E+008, +6.92017314583E-009, +0.00000000000E+000
+2.17778250000E+008, +6.89169671292E-009, +0.00000000000E+000
+2.19653062500E+008, +6.87201436686E-009, +0.00000000000E+000
+2.21527875000E+008, +6.86337450971E-009, +0.00000000000E+000
+2.23402687500E+008, +6.85847230461E-009, +0.00000000000E+000
+2.25277500000E+008, +6.85546753596E-009, +0.00000000000E+000
+2.27152312500E+008, +6.86444700619E-009, +0.00000000000E+000
+2.29027125000E+008, +6.87686071615E-009, +0.00000000000E+000
+2.30901937500E+008, +6.90388867634E-009, +0.00000000000E+000
+2.32776750000E+008, +6.94215554210E-009, +0.00000000000E+000
+2.34651562500E+008, +7.00023355551E-009, +0.00000000000E+000
+2.36526375000E+008, +7.07032583478E-009, +0.00000000000E+000
+2.38401187500E+008, +7.18806380730E-009, +0.00000000000E+000
+2.40276000000E+008, +7.31560558296E-009, +0.00000000000E+000
+2.42150812500E+008, +7.53540099015E-009, +0.00000000000E+000
+2.44025625000E+008, +7.78670201898E-009, +0.00000000000E+000
+2.45900437500E+008, +8.19745868291E-009, +0.00000000000E+000
+2.47775250000E+008, +8.73024778465E-009, +0.00000000000E+000
+2.49650062500E+008, +9.59322735744E-009, +0.00000000000E+000
+2.51524875000E+008, +1.06664152791E-008, +0.00000000000E+000
+2.53399687500E+008, +1.17720640098E-008, +0.00000000000E+000
+2.55274500000E+008, +1.28314568446E-008, +0.00000000000E+000
+2.57149312500E+008, +1.34807774394E-008, +0.00000000000E+000
+2.59024125000E+008, +1.40071300477E-008, +0.00000000000E+000
+2.60898937500E+008, +1.43489053779E-008, +0.00000000000E+000
+2.62773750000E+008, +1.46145055821E-008, +0.00000000000E+000
+2.64648562500E+008, +1.47569597398E-008, +0.00000000000E+000
+2.66523375000E+008, +1.48895440626E-008, +0.00000000000E+000
+2.68398187500E+008, +1.49651600783E-008, +0.00000000000E+000
+2.70273000000E+008, +1.50219558946E-008, +0.00000000000E+000
+2.72147812500E+008, +1.50434221140E-008, +0.00000000000E+000
+2.74022625000E+008, +1.50595277211E-008, +0.00000000000E+000
+2.75897437500E+008, +1.50582449534E-008, +0.00000000000E+000
+2.77772250000E+008, +1.50377798208E-008, +0.00000000000E+000
+2.79647062500E+008, +1.50013249285E-008, +0.00000000000E+000
+2.81521875000E+008, +1.49428984745E-008, +0.00000000000E+000
+2.83396687500E+008, +1.48721884450E-008, +0.00000000000E+000
+2.85271500000E+008, +1.47434852675E-008, +0.00000000000E+000
+2.87146312500E+008, +1.45978253014E-008, +0.00000000000E+000
+2.89021125000E+008, +1.43655969057E-008, +0.00000000000E+000
+2.90895937500E+008, +1.40933142014E-008, +0.00000000000E+000
+2.92770750000E+008, +1.36802782213E-008, +0.00000000000E+000
+2.94645562500E+008, +1.31177359526E-008, +0.00000000000E+000
+2.96520375000E+008, +1.22395613449E-008, +0.00000000000E+000
+2.98395187500E+008, +1.11397343301E-008, +0.00000000000E+000
+3.00270000000E+008, +1.00078325207E-008, +0.00000000000E+000
+3.02144812500E+008, +8.91801284227E-009, +0.00000000000E+000
+3.04019625000E+008, +8.24040785031E-009, +0.00000000000E+000
+3.05894437500E+008, +7.68052089308E-009, +0.00000000000E+000
+3.07769250000E+008, +7.30419681449E-009, +0.00000000000E+000
+3.09644062500E+008, +7.00355733059E-009, +0.00000000000E+000
+3.11518875000E+008, +6.81139121674E-009, +0.00000000000E+000
+3.13393687500E+008, +6.64575870695E-009, +0.00000000000E+000
+3.15268500000E+008, +6.49858774338E-009, +0.00000000000E+000
+3.17143312500E+008, +6.38280822551E-009, +0.00000000000E+000
+3.19018125000E+008, +6.29291220159E-009, +0.00000000000E+000
+3.20892937500E+008, +6.19347720986E-009, +0.00000000000E+000
+3.22767750000E+008, +6.09080005663E-009, +0.00000000000E+000
+3.24642562500E+008, +6.01192480932E-009, +0.00000000000E+000
+3.26517375000E+008, +5.90315525458E-009, +0.00000000000E+000
+3.28392187500E+008, +5.80481182793E-009, +0.00000000000E+000
+3.30267000000E+008, +5.66313661799E-009, +0.00000000000E+000
+3.32141812500E+008, +5.51572331533E-009, +0.00000000000E+000
+3.34016625000E+008, +5.24584683978E-009, +0.00000000000E+000
+3.35891437500E+008, +4.90662182082E-009, +0.00000000000E+000
+3.37766250000E+008, +4.23931329790E-009, +0.00000000000E+000
+3.39641062500E+008, +2.94666581224E-009, +0.00000000000E+000
+3.41515875000E+008, +4.22896437323E-010, +0.00000000000E+000
+3.43390687500E+008, -1.64724385839E-009, +0.00000000000E+000
+3.45265500000E+008, -2.66901779084E-009, +0.00000000000E+000
+3.47140312500E+008, -3.17070801939E-009, +0.00000000000E+000
+3.49015125000E+008, -3.43390264092E-009, +0.00000000000E+000
+3.50889937500E+008, -3.65169788632E-009, +0.00000000000E+000
+3.52764750000E+008, -3.75963664950E-009, +0.00000000000E+000
+3.54639562500E+008, -3.83554686476E-009, +0.00000000000E+000
+3.56514375000E+008, -3.89313680913E-009, +0.00000000000E+000
+3.58389187500E+008, -3.93472878850E-009, +0.00000000000E+000
+3.60264000000E+008, -3.96188864312E-009, +0.00000000000E+000
+3.62138812500E+008, -3.95760392251E-009, +0.00000000000E+000
+3.64013625000E+008, -3.98617375757E-009, +0.00000000000E+000
+3.65888437500E+008, -3.97023150621E-009, +0.00000000000E+000
+3.67763250000E+008, -3.96313888950E-009, +0.00000000000E+000
+3.69638062500E+008, -3.92461797005E-009, +0.00000000000E+000
+3.71512875000E+008, -3.91739317128E-009, +0.00000000000E+000
+3.73387687500E+008, -3.83959997626E-009, +0.00000000000E+000
+3.75262500000E+008, -3.78141699627E-009, +0.00000000000E+000
+3.77137312500E+008, -3.67362053714E-009, +0.00000000000E+000
+3.79012125000E+008, -3.55642882336E-009, +0.00000000000E+000
+3.80886937500E+008, -3.29627229787E-009, +0.00000000000E+000
+3.82761750000E+008, -2.98359263946E-009, +0.00000000000E+000
+3.84636562500E+008, -2.31468939445E-009, +0.00000000000E+000
+3.86511375000E+008, -1.03955362394E-009, +0.00000000000E+000
+3.88386187500E+008, +1.48625105035E-009, +0.00000000000E+000
+3.90261000000E+008, +3.55402135488E-009, +0.00000000000E+000
+3.92135812500E+008, +4.58590332612E-009, +0.00000000000E+000
+3.94010625000E+008, +5.09098225148E-009, +0.00000000000E+000
+3.95885437500E+008, +5.38026153187E-009, +0.00000000000E+000
+3.97760250000E+008, +5.61461493834E-009, +0.00000000000E+000
+3.99635062500E+008, +5.74030493506E-009, +0.00000000000E+000
+4.01509875000E+008, +5.84260043258E-009, +0.00000000000E+000
+4.03384687500E+008, +5.93783889177E-009, +0.00000000000E+000
+4.05259500000E+008, +6.01751291372E-009, +0.00000000000E+000
+4.07134312500E+008, +6.07530850113E-009, +0.00000000000E+000
+4.09009125000E+008, +6.13128196705E-009, +0.00000000000E+000
+4.10883937500E+008, +6.21106739703E-009, +0.00000000000E+000
+4.12758750000E+008, +6.25853204384E-009, +0.00000000000E+000
+4.14633562500E+008, +6.32722843995E-009, +0.00000000000E+000
+4.16508375000E+008, +6.37530893817E-009, +0.00000000000E+000
+4.18383187500E+008, +6.44814446037E-009, +0.00000000000E+000
+4.20258000000E+008, +6.49729697487E-009, +0.00000000000E+000
+4.22132812500E+008, +6.56730567726E-009, +0.00000000000E+000
+4.24007625000E+008, +6.63606464410E-009, +0.00000000000E+000
+4.25882437500E+008, +6.70918824607E-009, +0.00000000000E+000
+4.27757250000E+008, +6.78327438719E-009, +0.00000000000E+000
+4.29632062500E+008, +6.86630228661E-009, +0.00000000000E+000
+4.31506875000E+008, +6.94142196755E-009, +0.00000000000E+000
+4.33381687500E+008, +7.02208482384E-009, +0.00000000000E+000
+4.35256500000E+008, +7.11330959848E-009, +0.00000000000E+000
+4.37131312500E+008, +7.21838014946E-009, +0.00000000000E+000
+4.39006125000E+008, +7.31551632795E-009, +0.00000000000E+000
+4.40880937500E+008, +7.42031027449E-009, +0.00000000000E+000
+4.42755750000E+008, +7.52739796081E-009, +0.00000000000E+000
+4.44630562500E+008, +7.64122646558E-009, +0.00000000000E+000
+4.46505375000E+008, +7.75664218197E-009, +0.00000000000E+000
+4.48380187500E+008, +7.87107940970E-009, +0.00000000000E+000
+4.50255000000E+008, +7.99274759572E-009, +0.00000000000E+000
+4.52129812500E+008, +8.11219270721E-009, +0.00000000000E+000
+4.54004625000E+008, +8.22706484335E-009, +0.00000000000E+000
+4.55879437500E+008, +8.35426219784E-009, +0.00000000000E+000
+4.57754250000E+008, +8.45214648134E-009, +0.00000000000E+000
+4.59629062500E+008, +8.56025021268E-009, +0.00000000000E+000
+4.61503875000E+008, +8.65624786828E-009, +0.00000000000E+000
+4.63378687500E+008, +8.75956516713E-009, +0.00000000000E+000
+4.65253500000E+008, +8.84508360917E-009, +0.00000000000E+000
+4.67128312500E+008, +8.91130681297E-009, +0.00000000000E+000
+4.69003125000E+008, +8.96617369428E-009, +0.00000000000E+000
+4.70877937500E+008, +9.01484397153E-009, +0.00000000000E+000
+4.72752750000E+008, +9.04074177205E-009, +0.00000000000E+000
+4.74627562500E+008, +9.08731237538E-009, +0.00000000000E+000
+4.76502375000E+008, +9.08018749044E-009, +0.00000000000E+000
+4.78377187500E+008, +9.06950316736E-009, +0.00000000000E+000
+4.80252000000E+008, +9.05635687996E-009, +0.00000000000E+000
+4.82126812500E+008, +9.01581461159E-009, +0.00000000000E+000
+4.84001625000E+008, +8.96472882987E-009, +0.00000000000E+000
+4.85876437500E+008, +8.91168922629E-009, +0.00000000000E+000
+4.87751250000E+008, +8.83576127912E-009, +0.00000000000E+000
+4.89626062500E+008, +8.74034942973E-009, +0.00000000000E+000
+4.91500875000E+008, +8.63018883530E-009, +0.00000000000E+000
+4.93375687500E+008, +8.51612904131E-009, +0.00000000000E+000
+4.95250500000E+008, +8.38707544842E-009, +0.00000000000E+000
+4.97125312500E+008, +8.24432645332E-009, +0.00000000000E+000
+4.99000125000E+008, +8.09988584811E-009, +0.00000000000E+000
+5.00874937500E+008, +7.93816111586E-009, +0.00000000000E+000
+5.02749750000E+008, +7.75132176339E-009, +0.00000000000E+000
+5.04624562500E+008, +7.59397791503E-009, +0.00000000000E+000
+5.06499375000E+008, +7.40243514134E-009, +0.00000000000E+000
+5.08374187500E+008, +7.21083756282E-009, +0.00000000000E+000
+5.10249000000E+008, +7.01162767355E-009, +0.00000000000E+000
+5.12123812500E+008, +6.80506869564E-009, +0.00000000000E+000
+5.13998625000E+008, +6.60680238179E-009, +0.00000000000E+000
+5.15873437500E+008, +6.39242455139E-009, +0.00000000000E+000
+5.17748250000E+008, +6.18365681864E-009, +0.00000000000E+000
+5.19623062500E+008, +5.96260038865E-009, +0.00000000000E+000
+5.21497875000E+008, +5.69060690189E-009, +0.00000000000E+000
+5.23372687500E+008, +5.46669199324E-009, +0.00000000000E+000
+5.25247500000E+008, +5.20863795785E-009, +0.00000000000E+000
+5.27122312500E+008, +4.93396590600E-009, +0.00000000000E+000
+5.28997125000E+008, +4.64470723196E-009, +0.00000000000E+000
+5.30871937500E+008, +4.33608160752E-009, +0.00000000000E+000
+5.32746750000E+008, +3.99721527612E-009, +0.00000000000E+000
+5.34621562500E+008, +3.65067633101E-009, +0.00000000000E+000
+5.36496375000E+008, +3.26854198181E-009, +0.00000000000E+000
+5.38371187500E+008, +2.89591124722E-009, +0.00000000000E+000
+5.40246000000E+008, +2.49812793029E-009, +0.00000000000E+000
+5.42120812500E+008, +2.09676662438E-009, +0.00000000000E+000
+5.43995625000E+008, +1.70304406072E-009, +0.00000000000E+000
+5.45870437500E+008, +1.32974219669E-009, +0.00000000000E+000
+5.47745250000E+008, +9.79445836907E-010, +0.00000000000E+000
+5.49620062500E+008, +6.69861656511E-010, +0.00000000000E+000
+5.51494875000E+008, +3.79585198085E-010, +0.00000000000E+000
+5.53369687500E+008, +1.31035561713E-010, +0.00000000000E+000
+5.55244500000E+008, -9.23752057987E-011, +0.00000000000E+000
+5.57119312500E+008, -2.66798867412E-010, +0.00000000000E+000
+5.58994125000E+008, -4.21686708854E-010, +0.00000000000E+000
+5.60868937500E+008, -5.48495724716E-010, +0.00000000000E+000
+5.62743750000E+008, -6.37296135963E-010, +0.00000000000E+000
+5.64618562500E+008, -7.06897804894E-010, +0.00000000000E+000
+5.66493375000E+008, -7.40493238082E-010, +0.00000000000E+000
+5.68368187500E+008, -7.36010865947E-010, +0.00000000000E+000
+5.70243000000E+008, -7.16750503694E-010, +0.00000000000E+000
+5.72117812500E+008, -6.59772229764E-010, +0.00000000000E+000
+5.73992625000E+008, -5.78774715655E-010, +0.00000000000E+000
+5.75867437500E+008, -4.60980394393E-010, +0.00000000000E+000
+5.77742250000E+008, -3.20770532267E-010, +0.00000000000E+000
+5.79617062500E+008, -1.46203383608E-010, +0.00000000000E+000
+5.81491875000E+008, +6.43500512652E-011, +0.00000000000E+000
+5.83366687500E+008, +3.10002370593E-010, +0.00000000000E+000
+5.85241500000E+008, +5.75671612778E-010, +0.00000000000E+000
+5.87116312500E+008, +8.55640471951E-010, +0.00000000000E+000
+5.88991125000E+008, +1.16595320905E-009, +0.00000000000E+000
+5.90865937500E+008, +1.45730662173E-009, +0.00000000000E+000
