"# Channel 3"
"# Trace 1"
Frequency, Formatted Data, Formatted Data
+3.00000000000E+005, -6.95490984541E-008, +0.00000000000E+000
+2.17481250000E+006, -5.04107395534E-008, +0.00000000000E+000
+4.04962500000E+006, -3.08221961472E-008, +0.00000000000E+000
+5.92443750000E+006, -2.09195697415E-008, +0.00000000000E+000
+7.79925000000E+006, -1.51146347509E-008, +0.00000000000E+000
+9.67406250000E+006, -1.11626944745E-008, +0.00000000000E+000
+1.15488750000E+007, -8.51971673791E-009, +0.00000000000E+000
+1.34236875000E+007, -6.57709440822E-009, +0.00000000000E+000
+1.52985000000E+007, -5.00148092829E-009, +0.00000000000E+000
+1.71733125000E+007, -3.63100480145E-009, +0.00000000000E+000
+1.90481250000E+007, -2.23364030213E-009, +0.00000000000E+000
+2.09229375000E+007, -5.01226640877E-010, +0.00000000000E+000
+2.27977500000E+007, +2.40065319000E-009, +0.00000000000E+000
+2.46725625000E+007, +6.98483357541E-009, +0.00000000000E+000
+2.65473750000E+007, +1.12315724756E-008, +0.00000000000E+000
+2.84221875000E+007, +1.27075889122E-008, +0.00000000000E+000
+3.02970000000E+007, +1.37026809979E-008, +0.00000000000E+000
+3.21718125000E+007, +1.41277991442E-008, +0.00000000000E+000
+3.40466250000E+007, +1.44723834781E-008, +0.00000000000E+000
+3.59214375000E+007, +1.47002281015E-008, +0.00000000000E+000
+3.77962500000E+007, +1.48756576962E-008, +0.00000000000E+000
+3.96710625000E+007, +1.49905418836E-008, +0.00000000000E+000
+4.15458750000E+007, +1.50496194053E-008, +0.00000000000E+000
+4.34206875000E+007, +1.51003976970E-008, +0.00000000000E+000
+4.52955000000E+007, +1.51425357657E-008, +0.00000000000E+000
+4.71703125000E+007, +1.51932642561E-008, +0.00000000000E+000
+4.90451250000E+007, +1.52590850674E-008, +0.00000000000E+000
+5.09199375000E+007, +1.52911277397E-008, +0.00000000000E+000
+5.27947500000E+007, +1.52869712685E-008, +0.00000000000E+000
+5.46695625000E+007, +1.52997135705E-008, +0.00000000000E+000
+5.65443750000E+007, +1.52382101757E-008, +0.00000000000E+000
+5.84191875000E+007, +1.52002080426E-008, +0.00000000000E+000
+6.02940000000E+007, +1.50317286598E-008, +0.00000000000E+000
+6.21688125000E+007, +1.48680357834E-008, +0.00000000000E+000
+6.40436250000E+007, +1.44882619487E-008, +0.00000000000E+000
+6.59184375000E+007, +1.39868589310E-008, +0.00000000000E+000
+6.77932500000E+007, +1.30131190771E-008, +0.00000000000E+000
+6.96680625000E+007, +1.16727729111E-008, +0.00000000000E+000
+7.15428750000E+007, +1.01504689073E-008, +0.00000000000E+000
+7.34176875000E+007, +8.96072546606E-009, +0.00000000000E+000
+7.52925000000E+007, +8.25686752721E-009, +0.00000000000E+000
+7.71673125000E+007, +7.78998520330E-009, +0.00000000000E+000
+7.90421250000E+007, +7.52960246980E-009, +0.00000000000E+000
+8.09169375000E+007, +7.34523176938E-009, +0.00000000000E+000
+8.27917500000E+007, +7.24748275955E-009, +0.00000000000E+000
+8.46665625000E+007, +7.18704315233E-009, +0.00000000000E+000
+8.65413750000E+007, +7.16232601738E-009, +0.00000000000E+000
+8.84161875000E+007, +7.16940082291E-009, +0.00000000000E+000
+9.02910000000E+007, +7.17055440630E-009, +0.00000000000E+000
+9.21658125000E+007, +7.20833008120E-009, +0.00000000000E+000
+9.40406250000E+007, +7.27292375041E-009, +0.00000000000E+000
+9.59154375000E+007, +7.31238878467E-009, +0.00000000000E+000
+9.77902500000E+007, +7.39761727909E-009, +0.00000000000E+000
+9.96650625000E+007, +7.48053460117E-009, +0.00000000000E+000
+1.01539875000E+008, +7.57125335864E-009, +0.00000000000E+000
+1.03414687500E+008, +7.67278845167E-009, +0.00000000000E+000
+1.05289500000E+008, +7.79096373441E-009, +0.00000000000E+000
+1.07164312500E+008, +7.90466505136E-009, +0.00000000000E+000
+1.09039125000E+008, +8.02311767217E-009, +0.00000000000E+000
+1.10913937500E+008, +8.17040755815E-009, +0.00000000000E+000
+1.12788750000E+008, +8.30529707801E-009, +0.00000000000E+000
+1.14663562500E+008, +8.44652572731E-009, +0.00000000000E+000
+1.16538375000E+008, +8.58433222420E-009, +0.00000000000E+000
+1.18413187500E+008, +8.72652579771E-009, +0.00000000000E+000
+1.20288000000E+008, +8.86131004263E-009, +0.00000000000E+000
+1.22162812500E+008, +8.98956894222E-009, +0.00000000000E+000
+1.24037625000E+008, +9.12891293555E-009, +0.00000000000E+000
+1.25912437500E+008, +9.23134940086E-009, +0.00000000000E+000
+1.27787250000E+008, +9.33355925621E-009, +0.00000000000E+000
+1.29662062500E+008, +9.42144670348E-009, +0.00000000000E+000
+1.31536875000E+008, +9.50304821431E-009, +0.00000000000E+000
+1.33411687500E+008, +9.56397076451E-009, +0.00000000000E+000
+1.35286500000E+008, +9.61510465333E-009, +0.00000000000E+000
+1.37161312500E+008, +9.64983742712E-009, +0.00000000000E+000
+1.39036125000E+008, +9.67117895729E-009, +0.00000000000E+000
+1.40910937500E+008, +9.67697272593E-009, +0.00000000000E+000
+1.42785750000E+008, +9.67498643031E-009, +0.00000000000E+000
+1.44660562500E+008, +9.64187449811E-009, +0.00000000000E+000
+1.46535375000E+008, +9.60106724062E-009, +0.00000000000E+000
+1.48410187500E+008, +9.55221692452E-009, +0.00000000000E+000
+1.50285000000E+008, +9.49105626008E-009, +0.00000000000E+000
+1.52159812500E+008, +9.41388549972E-009, +0.00000000000E+000
+1.54034625000E+008, +9.33220044237E-009, +0.00000000000E+000
+1.55909437500E+008, +9.23160985890E-009, +0.00000000000E+000
+1.57784250000E+008, +9.11692331793E-009, +0.00000000000E+000
+1.59659062500E+008, +8.99790904653E-009, +0.00000000000E+000
+1.61533875000E+008, +8.86757597467E-009, +0.00000000000E+000
+1.63408687500E+008, +8.74621034383E-009, +0.00000000000E+000
+1.65283500000E+008, +8.60133759399E-009, +0.00000000000E+000
+1.67158312500E+008, +8.47002510068E-009, +0.00000000000E+000
+1.69033125000E+008, +8.32862227206E-009, +0.00000000000E+000
+1.70907937500E+008, +8.18674507534E-009, +0.00000000000E+000
+1.72782750000E+008, +8.05260973976E-009, +0.00000000000E+000
+1.74657562500E+008, +7.91900632848E-009, +0.00000000000E+000
+1.76532375000E+008, +7.80271464121E-009, +0.00000000000E+000
+1.78407187500E+008, +7.67919099530E-009, +0.00000000000E+000
+1.80282000000E+008, +7.57521793774E-009, +0.00000000000E+000
+1.82156812500E+008, +7.46335077493E-009, +0.00000000000E+000
+1.84031625000E+008, +7.36861413541E-009, +0.00000000000E+000
+1.85906437500E+008, +7.28762770112E-009, +0.00000000000E+000
+1.87781250000E+008, +7.20557772364E-009, +0.00000000000E+000
+1.89656062500E+008, +7.14337165021E-009, +0.00000000000E+000
+1.91530875000E+008, +7.08323887769E-009, +0.00000000000E+000
+1.93405687500E+008, +7.04318406422E-009, +0.00000000000E+000
+1.95280500000E+008, +6.99182608671E-009, +0.00000000000E+000
+1.97155312500E+008, +6.97422473423E-009, +0.00000000000E+000
+1.99030125000E+008, +6.94351348803E-009, +0.00000000000E+000
+2.00904937500E+008, +6.94720872998E-009, +0.00000000000E+000
+2.02779750000E+008, +6.95105652360E-009, +0.00000000000E+000
+2.04654562500E+008, +6.97198745245E-009, +0.00000000000E+000
+2.06529375000E+008, +7.00488568394E-009, +0.00000000000E+000
+2.08404187500E+008, +7.06770157749E-009, +0.00000000000E+000
+2.10279000000E+008, +7.13633024577E-009, +0.00000000000E+000
+2.12153812500E+008, +7.27036255513E-009, +0.00000000000E+000
+2.14028625000E+008, +7.39491466461E-009, +0.00000000000E+000
+2.15903437500E+008, +7.60415449665E-009, +0.00000000000E+000
+2.17778250000E+008, +7.85686180324E-009, +0.00000000000E+000
+2.19653062500E+008, +8.20940068955E-009, +0.00000000000E+000
+2.21527875000E+008, +8.66094177044E-009, +0.00000000000E+000
+2.23402687500E+008, +9.25862576595E-009, +0.00000000000E+000
+2.25277500000E+008, +9.94748803262E-009, +0.00000000000E+000
+2.27152312500E+008, +1.07125896099E-008, +0.00000000000E+000
+2.29027125000E+008, +1.14951221633E-008, +0.00000000000E+000
+2.30901937500E+008, +1.21639836782E-008, +0.00000000000E+000
+2.32776750000E+008, +1.27226480076E-008, +0.00000000000E+000
+2.34651562500E+008, +1.31528813929E-008, +0.00000000000E+000
+2.36526375000E+008, +1.34531205945E-008, +0.00000000000E+000
+2.38401187500E+008, +1.37063532031E-008, +0.00000000000E+000
+2.40276000000E+008, +1.38824993472E-008, +0.00000000000E+000
+2.42150812500E+008, +1.40215108595E-008, +0.00000000000E+000
+2.44025625000E+008, +1.41075818815E-008, +0.00000000000E+000
+2.45900437500E+008, +1.41856648896E-008, +0.00000000000E+000
+2.47775250000E+008, +1.42203859617E-008, +0.00000000000E+000
+2.49650062500E+008, +1.42458921555E-008, +0.00000000000E+000
+2.51524875000E+008, +1.42376006595E-008, +0.00000000000E+000
+2.53399687500E+008, +1.42152518283E-008, +0.00000000000E+000
+2.55274500000E+008, +1.41613835042E-008, +0.00000000000E+000
+2.57149312500E+008, +1.40947525293E-008, +0.00000000000E+000
+2.59024125000E+008, +1.39668449129E-008, +0.00000000000E+000
+2.60898937500E+008, +1.38376225544E-008, +0.00000000000E+000
+2.62773750000E+008, +1.36409729146E-008, +0.00000000000E+000
+2.64648562500E+008, +1.33818817990E-008, +0.00000000000E+000
+2.66523375000E+008, +1.30291055462E-008, +0.00000000000E+000
+2.68398187500E+008, +1.25816140524E-008, +0.00000000000E+000
+2.70273000000E+008, +1.19825059546E-008, +0.00000000000E+000
+2.72147812500E+008, +1.12942921639E-008, +0.00000000000E+000
+2.74022625000E+008, +1.05214152389E-008, +0.00000000000E+000
+2.75897437500E+008, +9.75331666804E-009, +0.00000000000E+000
+2.77772250000E+008, +9.08744541060E-009, +0.00000000000E+000
+2.79647062500E+008, +8.53147048236E-009, +0.00000000000E+000
+2.81521875000E+008, +8.10660588660E-009, +0.00000000000E+000
+2.83396687500E+008, +7.82340963168E-009, +0.00000000000E+000
+2.85271500000E+008, +7.56249154437E-009, +0.00000000000E+000
+2.87146312500E+008, +7.39899506657E-009, +0.00000000000E+000
+2.89021125000E+008, +7.27844356334E-009, +0.00000000000E+000
+2.90895937500E+008, +7.19271773984E-009, +0.00000000000E+000
+2.92770750000E+008, +7.13042810197E-009, +0.00000000000E+000
+2.94645562500E+008, +7.09323807317E-009, +0.00000000000E+000
+2.96520375000E+008, +7.06763381210E-009, +0.00000000000E+000
+2.98395187500E+008, +7.07967350022E-009, +0.00000000000E+000
+3.00270000000E+008, +7.11183215735E-009, +0.00000000000E+000
+3.02144812500E+008, +7.13969611519E-009, +0.00000000000E+000
+3.04019625000E+008, +7.19924802667E-009, +0.00000000000E+000
+3.05894437500E+008, +7.26329910870E-009, +0.00000000000E+000
+3.07769250000E+008, +7.34658276716E-009, +0.00000000000E+000
+3.09644062500E+008, +7.42965491639E-009, +0.00000000000E+000
+3.11518875000E+008, +7.54583896602E-009, +0.00000000000E+000
+3.13393687500E+008, +7.65698426860E-009, +0.00000000000E+000
+3.15268500000E+008, +7.78888798849E-009, +0.00000000000E+000
+3.17143312500E+008, +7.92003732156E-009, +0.00000000000E+000
+3.19018125000E+008, +8.06987581290E-009, +0.00000000000E+000
+3.20892937500E+008, +8.23650177030E-009, +0.00000000000E+000
+3.22767750000E+008, +8.39028909106E-009, +0.00000000000E+000
+3.24642562500E+008, +8.55226677797E-009, +0.00000000000E+000
+3.26517375000E+008, +8.71759032525E-009, +0.00000000000E+000
+3.28392187500E+008, +8.87399342838E-009, +0.00000000000E+000
+3.30267000000E+008, +9.02457241606E-009, +0.00000000000E+000
+3.32141812500E+008, +9.19262071524E-009, +0.00000000000E+000
+3.34016625000E+008, +9.32507983036E-009, +0.00000000000E+000
+3.35891437500E+008, +9.45916860412E-009, +0.00000000000E+000
+3.37766250000E+008, +9.58455532938E-009, +0.00000000000E+000
+3.39641062500E+008, +9.68414683174E-009, +0.00000000000E+000
+3.41515875000E+008, +9.77109219323E-009, +0.00000000000E+000
+3.43390687500E+008, +9.84695266683E-009, +0.00000000000E+000
+3.45265500000E+008, +9.90631797402E-009, +0.00000000000E+000
+3.47140312500E+008, +9.93621769520E-009, +0.00000000000E+000
+3.49015125000E+008, +9.95825522408E-009, +0.00000000000E+000
+3.50889937500E+008, +9.94014669462E-009, +0.00000000000E+000
+3.52764750000E+008, +9.92605048205E-009, +0.00000000000E+000
+3.54639562500E+008, +9.87660928920E-009, +0.00000000000E+000
+3.56514375000E+008, +9.82528687995E-009, +0.00000000000E+000
+3.58389187500E+008, +9.74235211692E-009, +0.00000000000E+000
+3.60264000000E+008, +9.65290474204E-009, +0.00000000000E+000
+3.62138812500E+008, +9.53276520540E-009, +0.00000000000E+000
+3.64013625000E+008, +9.40834380678E-009, +0.00000000000E+000
+3.65888437500E+008, +9.26715070324E-009, +0.00000000000E+000
+3.67763250000E+008, +9.10964853570E-009, +0.00000000000E+000
+3.69638062500E+008, +8.93498124495E-009, +0.00000000000E+000
+3.71512875000E+008, +8.76229287673E-009, +0.00000000000E+000
+3.73387687500E+008, +8.56314019863E-009, +0.00000000000E+000
+3.75262500000E+008, +8.37991341291E-009, +0.00000000000E+000
+3.77137312500E+008, +8.19021723063E-009, +0.00000000000E+000
+3.79012125000E+008, +8.00142149899E-009, +0.00000000000E+000
+3.80886937500E+008, +7.81383245205E-009, +0.00000000000E+000
+3.82761750000E+008, +7.63047430602E-009, +0.00000000000E+000
+3.84636562500E+008, +7.44052110830E-009, +0.00000000000E+000
+3.86511375000E+008, +7.27811823173E-009, +0.00000000000E+000
+3.88386187500E+008, +7.11022176697E-009, +0.00000000000E+000
+3.90261000000E+008, +6.94470411345E-009, +0.00000000000E+000
+3.92135812500E+008, +6.79751781160E-009, +0.00000000000E+000
+3.94010625000E+008, +6.64064597963E-009, +0.00000000000E+000
+3.95885437500E+008, +6.52077579226E-009, +0.00000000000E+000
+3.97760250000E+008, +6.37506614183E-009, +0.00000000000E+000
+3.99635062500E+008, +6.25491361653E-009, +0.00000000000E+000
+4.01509875000E+008, +6.11928914539E-009, +0.00000000000E+000
+4.03384687500E+008, +6.00510749422E-009, +0.00000000000E+000
+4.05259500000E+008, +5.86813511599E-009, +0.00000000000E+000
+4.07134312500E+008, +5.75214185586E-009, +0.00000000000E+000
+4.09009125000E+008, +5.57065399104E-009, +0.00000000000E+000
+4.10883937500E+008, +5.38521552880E-009, +0.00000000000E+000
+4.12758750000E+008, +5.14431074676E-009, +0.00000000000E+000
+4.14633562500E+008, +4.80974474687E-009, +0.00000000000E+000
+4.16508375000E+008, +4.02449047300E-009, +0.00000000000E+000
+4.18383187500E+008, +2.20054118957E-009, +0.00000000000E+000
+4.20258000000E+008, -1.62357987346E-009, +0.00000000000E+000
+4.22132812500E+008, -3.21508695802E-009, +0.00000000000E+000
+4.24007625000E+008, -3.90313136109E-009, +0.00000000000E+000
+4.25882437500E+008, -4.20067803669E-009, +0.00000000000E+000
+4.27757250000E+008, -4.40389116413E-009, +0.00000000000E+000
+4.29632062500E+008, -4.54337677738E-009, +0.00000000000E+000
+4.31506875000E+008, -4.65196934925E-009, +0.00000000000E+000
+4.33381687500E+008, -4.72534281987E-009, +0.00000000000E+000
+4.35256500000E+008, -4.79552917048E-009, +0.00000000000E+000
+4.37131312500E+008, -4.83555705443E-009, +0.00000000000E+000
+4.39006125000E+008, -4.89474163941E-009, +0.00000000000E+000
+4.40880937500E+008, -4.92835319535E-009, +0.00000000000E+000
+4.42755750000E+008, -4.99604243734E-009, +0.00000000000E+000
+4.44630562500E+008, -4.97988384746E-009, +0.00000000000E+000
+4.46505375000E+008, -5.02602880533E-009, +0.00000000000E+000
+4.48380187500E+008, -5.01080673685E-009, +0.00000000000E+000
+4.50255000000E+008, -5.03659805247E-009, +0.00000000000E+000
+4.52129812500E+008, -5.02512806026E-009, +0.00000000000E+000
+4.54004625000E+008, -5.02372835204E-009, +0.00000000000E+000
+4.55879437500E+008, -4.93235191796E-009, +0.00000000000E+000
+4.57754250000E+008, -4.86211802495E-009, +0.00000000000E+000
+4.59629062500E+008, -4.71162152160E-009, +0.00000000000E+000
+4.61503875000E+008, -4.49170868443E-009, +0.00000000000E+000
+4.63378687500E+008, -3.79489162685E-009, +0.00000000000E+000
+4.65253500000E+008, -2.05524116663E-009, +0.00000000000E+000
+4.67128312500E+008, +1.69965166722E-009, +0.00000000000E+000
+4.69003125000E+008, +3.21452186985E-009, +0.00000000000E+000
+4.70877937500E+008, +3.80333218852E-009, +0.00000000000E+000
+4.72752750000E+008, +4.01684998149E-009, +0.00000000000E+000
+4.74627562500E+008, +4.13168315552E-009, +0.00000000000E+000
+4.76502375000E+008, +4.19314297680E-009, +0.00000000000E+000
+4.78377187500E+008, +4.21050373475E-009, +0.00000000000E+000
+4.80252000000E+008, +4.21286344316E-009, +0.00000000000E+000
+4.82126812500E+008, +4.18871802992E-009, +0.00000000000E+000
+4.84001625000E+008, +4.14461154367E-009, +0.00000000000E+000
+4.85876437500E+008, +4.09501579252E-009, +0.00000000000E+000
+4.87751250000E+008, +4.04852649901E-009, +0.00000000000E+000
+4.89626062500E+008, +3.98591886465E-009, +0.00000000000E+000
+4.91500875000E+008, +3.90012353440E-009, +0.00000000000E+000
+4.93375687500E+008, +3.80749714458E-009, +0.00000000000E+000
+4.95250500000E+008, +3.69115647937E-009, +0.00000000000E+000
+4.97125312500E+008, +3.56903671173E-009, +0.00000000000E+000
+4.99000125000E+008, +3.44183600194E-009, +0.00000000000E+000
+5.00874937500E+008, +3.26681524904E-009, +0.00000000000E+000
+5.02749750000E+008, +3.07823244285E-009, +0.00000000000E+000
+5.04624562500E+008, +2.87397727548E-009, +0.00000000000E+000
+5.06499375000E+008, +2.65510369717E-009, +0.00000000000E+000
+5.08374187500E+008, +2.38261723706E-009, +0.00000000000E+000
+5.10249000000E+008, +2.10611083937E-009, +0.00000000000E+000
+5.12123812500E+008, +1.78542049501E-009, +0.00000000000E+000
+5.13998625000E+008, +1.43413780231E-009, +0.00000000000E+000
+5.15873437500E+008, +1.10322405182E-009, +0.00000000000E+000
+5.17748250000E+008, +7.59290031608E-010, +0.00000000000E+000
+5.19623062500E+008, +4.11730596462E-010, +0.00000000000E+000
+5.21497875000E+008, +1.01472014967E-010, +0.00000000000E+000
+5.23372687500E+008, -1.94627750302E-010, +0.00000000000E+000
+5.25247500000E+008, -4.40782686512E-010, +0.00000000000E+000
+5.27122312500E+008, -6.98391135716E-010, +0.00000000000E+000
+5.28997125000E+008, -8.85575994522E-010, +0.00000000000E+000
+5.30871937500E+008, -1.05204412147E-009, +0.00000000000E+000
+5.32746750000E+008, -1.16626383765E-009, +0.00000000000E+000
+5.34621562500E+008, -1.27561667436E-009, +0.00000000000E+000
+5.36496375000E+008, -1.32878714214E-009, +0.00000000000E+000
+5.38371187500E+008, -1.39102758848E-009, +0.00000000000E+000
+5.40246000000E+008, -1.38254005995E-009, +0.00000000000E+000
+5.42120812500E+008, -1.36384164070E-009, +0.00000000000E+000
+5.43995625000E+008, -1.31755732001E-009, +0.00000000000E+000
+5.45870437500E+008, -1.24189996134E-009, +0.00000000000E+000
+5.47745250000E+008, -1.11272622749E-009, +0.00000000000E+000
+5.49620062500E+008, -9.93201143077E-010, +0.00000000000E+000
+5.51494875000E+008, -7.94956065978E-010, +0.00000000000E+000
+5.53369687500E+008, -6.28786079510E-010, +0.00000000000E+000
+5.55244500000E+008, -3.54558337840E-010, +0.00000000000E+000
+5.57119312500E+008, -8.63026422100E-011, +0.00000000000E+000
+5.58994125000E+008, +2.40216535400E-010, +0.00000000000E+000
+5.60868937500E+008, +5.96316606825E-010, +0.00000000000E+000
+5.62743750000E+008, +9.37316264733E-010, +0.00000000000E+000
+5.64618562500E+008, +1.30979551451E-009, +0.00000000000E+000
+5.66493375000E+008, +1.69070757856E-009, +0.00000000000E+000
+5.68368187500E+008, +2.04152275723E-009, +0.00000000000E+000
+5.70243000000E+008, +2.38408996688E-009, +0.00000000000E+000
+5.72117812500E+008, +2.67815969620E-009, +0.00000000000E+000
+5.73992625000E+008, +2.99057182522E-009, +0.00000000000E+000
+5.75867437500E+008, +3.24397001271E-009, +0.00000000000E+000
+5.77742250000E+008, +3.50911640062E-009, +0.00000000000E+000
+5.79617062500E+008, +3.71093863243E-009, +0.00000000000E+000
+5.81491875000E+008, +3.91472974839E-009, +0.00000000000E+000
+5.83366687500E+008, +4.09556277714E-009, +0.00000000000E+000
+5.85241500000E+008, +4.26905773366E-009, +0.00000000000E+000
+5.87116312500E+008, +4.41799561983E-009, +0.00000000000E+000
+5.88991125000E+008, +4.56291756663E-009, +0.00000000000E+000
+5.90865937500E+008, +4.69469678005E-009, +0.00000000000E+000
