"# Channel 2"
"# Trace 1"
Frequency, Formatted Data, Formatted Data
+3.00000000000E+005, -7.93460587082E+000, +0.00000000000E+000
+2.17481250000E+006, -4.03488542230E+000, +0.00000000000E+000
+4.04962500000E+006, -5.06611012589E+000, +0.00000000000E+000
+5.92443750000E+006, -6.93100109010E+000, +0.00000000000E+000
+7.79925000000E+006, -9.14695760430E+000, +0.00000000000E+000
+9.67406250000E+006, -1.18633506874E+001, +0.00000000000E+000
+1.15488750000E+007, -1.47630541467E+001, +0.00000000000E+000
+1.34236875000E+007, -1.77083192071E+001, +0.00000000000E+000
+1.52985000000E+007, -2.07202634464E+001, +0.00000000000E+000
+1.71733125000E+007, -2.38304807423E+001, +0.00000000000E+000
+1.90481250000E+007, -2.70760231698E+001, +0.00000000000E+000
+2.09229375000E+007, -3.05024753323E+001, +0.00000000000E+000
+2.27977500000E+007, -3.41158811847E+001, +0.00000000000E+000
+2.46725625000E+007, -3.71524500882E+001, +0.00000000000E+000
+2.65473750000E+007, -4.07969413163E+001, +0.00000000000E+000
+2.84221875000E+007, -4.43929905618E+001, +0.00000000000E+000
+3.02970000000E+007, -4.82960231287E+001, +0.00000000000E+000
+3.21718125000E+007, -5.23844061009E+001, +0.00000000000E+000
+3.40466250000E+007, -5.66925246462E+001, +0.00000000000E+000
+3.59214375000E+007, -6.12898140171E+001, +0.00000000000E+000
+3.77962500000E+007, -6.61760285006E+001, +0.00000000000E+000
+3.96710625000E+007, -7.13938464610E+001, +0.00000000000E+000
+4.15458750000E+007, -7.69408544038E+001, +0.00000000000E+000
+4.34206875000E+007, -8.28050292884E+001, +0.00000000000E+000
+4.52955000000E+007, -8.90068539688E+001, +0.00000000000E+000
+4.71703125000E+007, -9.55854685987E+001, +0.00000000000E+000
+4.90451250000E+007, -1.02431837497E+002, +0.00000000000E+000
+5.09199375000E+007, -1.09509096824E+002, +0.00000000000E+000
+5.27947500000E+007, -1.16799350194E+002, +0.00000000000E+000
+5.46695625000E+007, -1.24247601504E+002, +0.00000000000E+000
+5.65443750000E+007, -1.31828090851E+002, +0.00000000000E+000
+5.84191875000E+007, -1.39470146901E+002, +0.00000000000E+000
+6.02940000000E+007, -1.47194243378E+002, +0.00000000000E+000
+6.21688125000E+007, -1.54964018356E+002, +0.00000000000E+000
+6.40436250000E+007, -1.62750871370E+002, +0.00000000000E+000
+6.59184375000E+007, -1.70510712362E+002, +0.00000000000E+000
+6.77932500000E+007, -1.78261940992E+002, +0.00000000000E+000
+6.96680625000E+007, +1.74033893939E+002, +0.00000000000E+000
+7.15428750000E+007, +1.66412734208E+002, +0.00000000000E+000
+7.34176875000E+007, +1.58880801534E+002, +0.00000000000E+000
+7.52925000000E+007, +1.51462083704E+002, +0.00000000000E+000
+7.71673125000E+007, +1.44197512725E+002, +0.00000000000E+000
+7.90421250000E+007, +1.37127036065E+002, +0.00000000000E+000
+8.09169375000E+007, +1.30236820464E+002, +0.00000000000E+000
+8.27917500000E+007, +1.23628981600E+002, +0.00000000000E+000
+8.46665625000E+007, +1.17291529904E+002, +0.00000000000E+000
+8.65413750000E+007, +1.11304721465E+002, +0.00000000000E+000
+8.84161875000E+007, +1.05679587370E+002, +0.00000000000E+000
+9.02910000000E+007, +1.00433124146E+002, +0.00000000000E+000
+9.21658125000E+007, +9.55532317417E+001, +0.00000000000E+000
+9.40406250000E+007, +9.10502147229E+001, +0.00000000000E+000
+9.59154375000E+007, +8.68526708079E+001, +0.00000000000E+000
+9.77902500000E+007, +8.29034072390E+001, +0.00000000000E+000
+9.96650625000E+007, +7.91980171145E+001, +0.00000000000E+000
+1.01539875000E+008, +7.56793286137E+001, +0.00000000000E+000
+1.03414687500E+008, +7.23370905224E+001, +0.00000000000E+000
+1.05289500000E+008, +6.91150431110E+001, +0.00000000000E+000
+1.07164312500E+008, +6.60308439898E+001, +0.00000000000E+000
+1.09039125000E+008, +6.30410234417E+001, +0.00000000000E+000
+1.10913937500E+008, +6.01624708180E+001, +0.00000000000E+000
+1.12788750000E+008, +5.73453393773E+001, +0.00000000000E+000
+1.14663562500E+008, +5.46135103386E+001, +0.00000000000E+000
+1.16538375000E+008, +5.19306282920E+001, +0.00000000000E+000
+1.18413187500E+008, +4.93055101864E+001, +0.00000000000E+000
+1.20288000000E+008, +4.67349051051E+001, +0.00000000000E+000
+1.22162812500E+008, +4.42226400692E+001, +0.00000000000E+000
+1.24037625000E+008, +4.17434168485E+001, +0.00000000000E+000
+1.25912437500E+008, +3.93022072328E+001, +0.00000000000E+000
+1.27787250000E+008, +3.69045736973E+001, +0.00000000000E+000
+1.29662062500E+008, +3.45286896295E+001, +0.00000000000E+000
+1.31536875000E+008, +3.21867740903E+001, +0.00000000000E+000
+1.33411687500E+008, +2.98933837201E+001, +0.00000000000E+000
+1.35286500000E+008, +2.76239796973E+001, +0.00000000000E+000
+1.37161312500E+008, +2.53861532584E+001, +0.00000000000E+000
+1.39036125000E+008, +2.31600820082E+001, +0.00000000000E+000
+1.40910937500E+008, +2.09706260346E+001, +0.00000000000E+000
+1.42785750000E+008, +1.88032386455E+001, +0.00000000000E+000
+1.44660562500E+008, +1.66676377558E+001, +0.00000000000E+000
+1.46535375000E+008, +1.45649198314E+001, +0.00000000000E+000
+1.48410187500E+008, +1.24899429799E+001, +0.00000000000E+000
+1.50285000000E+008, +1.04337136337E+001, +0.00000000000E+000
+1.52159812500E+008, +8.40026013119E+000, +0.00000000000E+000
+1.54034625000E+008, +6.41087313516E+000, +0.00000000000E+000
+1.55909437500E+008, +4.44542335808E+000, +0.00000000000E+000
+1.57784250000E+008, +2.51128166684E+000, +0.00000000000E+000
+1.59659062500E+008, +5.92262061474E-001, +0.00000000000E+000
+1.61533875000E+008, -1.28726262394E+000, +0.00000000000E+000
+1.63408687500E+008, -3.15016906425E+000, +0.00000000000E+000
+1.65283500000E+008, -4.95672917856E+000, +0.00000000000E+000
+1.67158312500E+008, -6.75659504720E+000, +0.00000000000E+000
+1.69033125000E+008, -8.51925812981E+000, +0.00000000000E+000
+1.70907937500E+008, -1.02511701478E+001, +0.00000000000E+000
+1.72782750000E+008, -1.19421026368E+001, +0.00000000000E+000
+1.74657562500E+008, -1.36074252028E+001, +0.00000000000E+000
+1.76532375000E+008, -1.52099372350E+001, +0.00000000000E+000
+1.78407187500E+008, -1.68021381266E+001, +0.00000000000E+000
+1.80282000000E+008, -1.83401639547E+001, +0.00000000000E+000
+1.82156812500E+008, -1.98368293776E+001, +0.00000000000E+000
+1.84031625000E+008, -2.12775090007E+001, +0.00000000000E+000
+1.85906437500E+008, -2.26634607827E+001, +0.00000000000E+000
+1.87781250000E+008, -2.39707922715E+001, +0.00000000000E+000
+1.89656062500E+008, -2.52580824243E+001, +0.00000000000E+000
+1.91530875000E+008, -2.64509835949E+001, +0.00000000000E+000
+1.93405687500E+008, -2.75958502925E+001, +0.00000000000E+000
+1.95280500000E+008, -2.86010326943E+001, +0.00000000000E+000
+1.97155312500E+008, -2.95327167432E+001, +0.00000000000E+000
+1.99030125000E+008, -3.03171664553E+001, +0.00000000000E+000
+2.00904937500E+008, -3.10367182101E+001, +0.00000000000E+000
+2.02779750000E+008, -3.15770974906E+001, +0.00000000000E+000
+2.04654562500E+008, -3.19624777722E+001, +0.00000000000E+000
+2.06529375000E+008, -3.20872050072E+001, +0.00000000000E+000
+2.08404187500E+008, -3.20173559041E+001, +0.00000000000E+000
+2.10279000000E+008, -3.16217961843E+001, +0.00000000000E+000
+2.12153812500E+008, -3.09395106641E+001, +0.00000000000E+000
+2.14028625000E+008, -2.98128532797E+001, +0.00000000000E+000
+2.15903437500E+008, -2.83956530888E+001, +0.00000000000E+000
+2.17778250000E+008, -2.66009789362E+001, +0.00000000000E+000
+2.19653062500E+008, -2.43645146288E+001, +0.00000000000E+000
+2.21527875000E+008, -2.17588846496E+001, +0.00000000000E+000
+2.23402687500E+008, -1.89557502979E+001, +0.00000000000E+000
+2.25277500000E+008, -1.58477735928E+001, +0.00000000000E+000
+2.27152312500E+008, -1.25042485290E+001, +0.00000000000E+000
+2.29027125000E+008, -8.99500781000E+000, +0.00000000000E+000
+2.30901937500E+008, -5.32522009546E+000, +0.00000000000E+000
+2.32776750000E+008, -1.53189588305E+000, +0.00000000000E+000
+2.34651562500E+008, +2.38306146497E+000, +0.00000000000E+000
+2.36526375000E+008, +6.38414502226E+000, +0.00000000000E+000
+2.38401187500E+008, +1.04030066334E+001, +0.00000000000E+000
+2.40276000000E+008, +1.44984044534E+001, +0.00000000000E+000
+2.42150812500E+008, +1.85712327439E+001, +0.00000000000E+000
+2.44025625000E+008, +2.26647600391E+001, +0.00000000000E+000
+2.45900437500E+008, +2.67108426864E+001, +0.00000000000E+000
+2.47775250000E+008, +3.07946950716E+001, +0.00000000000E+000
+2.49650062500E+008, +3.47614227158E+001, +0.00000000000E+000
+2.51524875000E+008, +3.86715733094E+001, +0.00000000000E+000
+2.53399687500E+008, +4.24298933238E+001, +0.00000000000E+000
+2.55274500000E+008, +4.60470344907E+001, +0.00000000000E+000
+2.57149312500E+008, +4.94435769339E+001, +0.00000000000E+000
+2.59024125000E+008, +5.26311263027E+001, +0.00000000000E+000
+2.60898937500E+008, +5.54444858117E+001, +0.00000000000E+000
+2.62773750000E+008, +5.80700789263E+001, +0.00000000000E+000
+2.64648562500E+008, +6.04248064201E+001, +0.00000000000E+000
+2.66523375000E+008, +6.24379725501E+001, +0.00000000000E+000
+2.68398187500E+008, +6.41424944690E+001, +0.00000000000E+000
+2.70273000000E+008, +6.57166203190E+001, +0.00000000000E+000
+2.72147812500E+008, +6.70940206721E+001, +0.00000000000E+000
+2.74022625000E+008, +6.82878457237E+001, +0.00000000000E+000
+2.75897437500E+008, +6.94304954528E+001, +0.00000000000E+000
+2.77772250000E+008, +7.04484835738E+001, +0.00000000000E+000
+2.79647062500E+008, +7.14245420988E+001, +0.00000000000E+000
+2.81521875000E+008, +7.23119771233E+001, +0.00000000000E+000
+2.83396687500E+008, +7.32296229385E+001, +0.00000000000E+000
+2.85271500000E+008, +7.41457884648E+001, +0.00000000000E+000
+2.87146312500E+008, +7.50363874808E+001, +0.00000000000E+000
+2.89021125000E+008, +7.59315586175E+001, +0.00000000000E+000
+2.90895937500E+008, +7.68484750267E+001, +0.00000000000E+000
+2.92770750000E+008, +7.77652318341E+001, +0.00000000000E+000
+2.94645562500E+008, +7.86681331913E+001, +0.00000000000E+000
+2.96520375000E+008, +7.96214209652E+001, +0.00000000000E+000
+2.98395187500E+008, +8.05518776695E+001, +0.00000000000E+000
+3.00270000000E+008, +8.14693735885E+001, +0.00000000000E+000
+3.02144812500E+008, +8.23990006953E+001, +0.00000000000E+000
+3.04019625000E+008, +8.33179466167E+001, +0.00000000000E+000
+3.05894437500E+008, +8.42253680449E+001, +0.00000000000E+000
+3.07769250000E+008, +8.51260965848E+001, +0.00000000000E+000
+3.09644062500E+008, +8.59759168146E+001, +0.00000000000E+000
+3.11518875000E+008, +8.67603136316E+001, +0.00000000000E+000
+3.13393687500E+008, +8.74980513463E+001, +0.00000000000E+000
+3.15268500000E+008, +8.82226744150E+001, +0.00000000000E+000
+3.17143312500E+008, +8.89015719373E+001, +0.00000000000E+000
+3.19018125000E+008, +8.95262326830E+001, +0.00000000000E+000
+3.20892937500E+008, +9.00922494271E+001, +0.00000000000E+000
+3.22767750000E+008, +9.05731618683E+001, +0.00000000000E+000
+3.24642562500E+008, +9.10167500691E+001, +0.00000000000E+000
+3.26517375000E+008, +9.13904411923E+001, +0.00000000000E+000
+3.28392187500E+008, +9.17074116323E+001, +0.00000000000E+000
+3.30267000000E+008, +9.19383358486E+001, +0.00000000000E+000
+3.32141812500E+008, +9.20963526128E+001, +0.00000000000E+000
+3.34016625000E+008, +9.21990764123E+001, +0.00000000000E+000
+3.35891437500E+008, +9.22511769675E+001, +0.00000000000E+000
+3.37766250000E+008, +9.22203035526E+001, +0.00000000000E+000
+3.39641062500E+008, +9.21337201717E+001, +0.00000000000E+000
+3.41515875000E+008, +9.19988442720E+001, +0.00000000000E+000
+3.43390687500E+008, +9.17782388086E+001, +0.00000000000E+000
+3.45265500000E+008, +9.15112707998E+001, +0.00000000000E+000
+3.47140312500E+008, +9.11906850583E+001, +0.00000000000E+000
+3.49015125000E+008, +9.08265201768E+001, +0.00000000000E+000
+3.50889937500E+008, +9.04011337128E+001, +0.00000000000E+000
+3.52764750000E+008, +8.99136720283E+001, +0.00000000000E+000
+3.54639562500E+008, +8.93929313707E+001, +0.00000000000E+000
+3.56514375000E+008, +8.88385845808E+001, +0.00000000000E+000
+3.58389187500E+008, +8.82578240057E+001, +0.00000000000E+000
+3.60264000000E+008, +8.76280520387E+001, +0.00000000000E+000
+3.62138812500E+008, +8.69762330583E+001, +0.00000000000E+000
+3.64013625000E+008, +8.62811785495E+001, +0.00000000000E+000
+3.65888437500E+008, +8.55517996203E+001, +0.00000000000E+000
+3.67763250000E+008, +8.48154249323E+001, +0.00000000000E+000
+3.69638062500E+008, +8.40401963669E+001, +0.00000000000E+000
+3.71512875000E+008, +8.32464518290E+001, +0.00000000000E+000
+3.73387687500E+008, +8.24325876583E+001, +0.00000000000E+000
+3.75262500000E+008, +8.16117165399E+001, +0.00000000000E+000
+3.77137312500E+008, +8.07559475487E+001, +0.00000000000E+000
+3.79012125000E+008, +7.98913214308E+001, +0.00000000000E+000
+3.80886937500E+008, +7.89962670442E+001, +0.00000000000E+000
+3.82761750000E+008, +7.80777348340E+001, +0.00000000000E+000
+3.84636562500E+008, +7.71356304716E+001, +0.00000000000E+000
+3.86511375000E+008, +7.61771885092E+001, +0.00000000000E+000
+3.88386187500E+008, +7.51974691432E+001, +0.00000000000E+000
+3.90261000000E+008, +7.42083173297E+001, +0.00000000000E+000
+3.92135812500E+008, +7.31993875303E+001, +0.00000000000E+000
+3.94010625000E+008, +7.21859602357E+001, +0.00000000000E+000
+3.95885437500E+008, +7.11452751159E+001, +0.00000000000E+000
+3.97760250000E+008, +7.01015890555E+001, +0.00000000000E+000
+3.99635062500E+008, +6.90328453112E+001, +0.00000000000E+000
+4.01509875000E+008, +6.79634175862E+001, +0.00000000000E+000
+4.03384687500E+008, +6.68659367834E+001, +0.00000000000E+000
+4.05259500000E+008, +6.57639510327E+001, +0.00000000000E+000
+4.07134312500E+008, +6.46394237228E+001, +0.00000000000E+000
+4.09009125000E+008, +6.34988289680E+001, +0.00000000000E+000
+4.10883937500E+008, +6.23572351966E+001, +0.00000000000E+000
+4.12758750000E+008, +6.12131924156E+001, +0.00000000000E+000
+4.14633562500E+008, +6.00447179023E+001, +0.00000000000E+000
+4.16508375000E+008, +5.88746799809E+001, +0.00000000000E+000
+4.18383187500E+008, +5.76901765947E+001, +0.00000000000E+000
+4.20258000000E+008, +5.64833307940E+001, +0.00000000000E+000
+4.22132812500E+008, +5.52515557744E+001, +0.00000000000E+000
+4.24007625000E+008, +5.40294974311E+001, +0.00000000000E+000
+4.25882437500E+008, +5.27883990985E+001, +0.00000000000E+000
+4.27757250000E+008, +5.15547373374E+001, +0.00000000000E+000
+4.29632062500E+008, +5.02895517122E+001, +0.00000000000E+000
+4.31506875000E+008, +4.90404099480E+001, +0.00000000000E+000
+4.33381687500E+008, +4.77663748106E+001, +0.00000000000E+000
+4.35256500000E+008, +4.64812515139E+001, +0.00000000000E+000
+4.37131312500E+008, +4.51874002603E+001, +0.00000000000E+000
+4.39006125000E+008, +4.38882102376E+001, +0.00000000000E+000
+4.40880937500E+008, +4.25714317433E+001, +0.00000000000E+000
+4.42755750000E+008, +4.12561015539E+001, +0.00000000000E+000
+4.44630562500E+008, +3.99136746246E+001, +0.00000000000E+000
+4.46505375000E+008, +3.85826304810E+001, +0.00000000000E+000
+4.48380187500E+008, +3.72343653506E+001, +0.00000000000E+000
+4.50255000000E+008, +3.58842781472E+001, +0.00000000000E+000
+4.52129812500E+008, +3.45117022852E+001, +0.00000000000E+000
+4.54004625000E+008, +3.31434647318E+001, +0.00000000000E+000
+4.55879437500E+008, +3.17770632527E+001, +0.00000000000E+000
+4.57754250000E+008, +3.03875092642E+001, +0.00000000000E+000
+4.59629062500E+008, +2.89810108231E+001, +0.00000000000E+000
+4.61503875000E+008, +2.75798788704E+001, +0.00000000000E+000
+4.63378687500E+008, +2.61601480647E+001, +0.00000000000E+000
+4.65253500000E+008, +2.47411581265E+001, +0.00000000000E+000
+4.67128312500E+008, +2.33172075604E+001, +0.00000000000E+000
+4.69003125000E+008, +2.18740469845E+001, +0.00000000000E+000
+4.70877937500E+008, +2.04285011112E+001, +0.00000000000E+000
+4.72752750000E+008, +1.89796586557E+001, +0.00000000000E+000
+4.74627562500E+008, +1.75224752660E+001, +0.00000000000E+000
+4.76502375000E+008, +1.60506628734E+001, +0.00000000000E+000
+4.78377187500E+008, +1.45608592486E+001, +0.00000000000E+000
+4.80252000000E+008, +1.30613879868E+001, +0.00000000000E+000
+4.82126812500E+008, +1.15543885204E+001, +0.00000000000E+000
+4.84001625000E+008, +1.00255793992E+001, +0.00000000000E+000
+4.85876437500E+008, +8.49803666624E+000, +0.00000000000E+000
+4.87751250000E+008, +6.93915962691E+000, +0.00000000000E+000
+4.89626062500E+008, +5.36727953486E+000, +0.00000000000E+000
+4.91500875000E+008, +3.77539872102E+000, +0.00000000000E+000
+4.93375687500E+008, +2.15322815357E+000, +0.00000000000E+000
+4.95250500000E+008, +4.82287220165E-001, +0.00000000000E+000
+4.97125312500E+008, -1.19283613777E+000, +0.00000000000E+000
+4.99000125000E+008, -2.92116181793E+000, +0.00000000000E+000
+5.00874937500E+008, -4.66472304228E+000, +0.00000000000E+000
+5.02749750000E+008, -6.57019922023E+000, +0.00000000000E+000
+5.04624562500E+008, -8.53595982530E+000, +0.00000000000E+000
+5.06499375000E+008, -1.07590345108E+001, +0.00000000000E+000
+5.08374187500E+008, -1.34279927161E+001, +0.00000000000E+000
+5.10249000000E+008, -1.75182711564E+001, +0.00000000000E+000
+5.12123812500E+008, -2.38950324121E+001, +0.00000000000E+000
+5.13998625000E+008, -3.12205733694E+001, +0.00000000000E+000
+5.15873437500E+008, -3.91454600461E+001, +0.00000000000E+000
+5.17748250000E+008, -4.72130693134E+001, +0.00000000000E+000
+5.19623062500E+008, -5.54216834317E+001, +0.00000000000E+000
+5.21497875000E+008, -6.36896947256E+001, +0.00000000000E+000
+5.23372687500E+008, -7.20397228337E+001, +0.00000000000E+000
+5.25247500000E+008, -8.04092169317E+001, +0.00000000000E+000
+5.27122312500E+008, -8.88212219730E+001, +0.00000000000E+000
+5.28997125000E+008, -9.72455571013E+001, +0.00000000000E+000
+5.30871937500E+008, -1.05682059965E+002, +0.00000000000E+000
+5.32746750000E+008, -1.14128039095E+002, +0.00000000000E+000
+5.34621562500E+008, -1.22564859698E+002, +0.00000000000E+000
+5.36496375000E+008, -1.31006579478E+002, +0.00000000000E+000
+5.38371187500E+008, -1.39426417579E+002, +0.00000000000E+000
+5.40246000000E+008, -1.47838068319E+002, +0.00000000000E+000
+5.42120812500E+008, -1.56236118668E+002, +0.00000000000E+000
+5.43995625000E+008, -1.64625851942E+002, +0.00000000000E+000
+5.45870437500E+008, -1.72974267216E+002, +0.00000000000E+000
+5.47745250000E+008, +1.78680199725E+002, +0.00000000000E+000
+5.49620062500E+008, +1.70470923533E+002, +0.00000000000E+000
+5.51494875000E+008, +1.62327507925E+002, +0.00000000000E+000
+5.53369687500E+008, +1.54423079641E+002, +0.00000000000E+000
+5.55244500000E+008, +1.46951994832E+002, +0.00000000000E+000
+5.57119312500E+008, +1.40890073384E+002, +0.00000000000E+000
+5.58994125000E+008, +1.37097118759E+002, +0.00000000000E+000
+5.60868937500E+008, +1.34248992438E+002, +0.00000000000E+000
+5.62743750000E+008, +1.32007569468E+002, +0.00000000000E+000
+5.64618562500E+008, +1.29881598017E+002, +0.00000000000E+000
+5.66493375000E+008, +1.27893154249E+002, +0.00000000000E+000
+5.68368187500E+008, +1.25948705237E+002, +0.00000000000E+000
+5.70243000000E+008, +1.24092310941E+002, +0.00000000000E+000
+5.72117812500E+008, +1.22248851560E+002, +0.00000000000E+000
+5.73992625000E+008, +1.20451056713E+002, +0.00000000000E+000
+5.75867437500E+008, +1.18656263434E+002, +0.00000000000E+000
+5.77742250000E+008, +1.16883063691E+002, +0.00000000000E+000
+5.79617062500E+008, +1.15097055903E+002, +0.00000000000E+000
+5.81491875000E+008, +1.13323647312E+002, +0.00000000000E+000
+5.83366687500E+008, +1.11549087697E+002, +0.00000000000E+000
+5.85241500000E+008, +1.09773688851E+002, +0.00000000000E+000
+5.87116312500E+008, +1.07997132341E+002, +0.00000000000E+000
+5.88991125000E+008, +1.06252397631E+002, +0.00000000000E+000
+5.90865937500E+008, +1.04492929792E+002, +0.00000000000E+000
