"# Channel 2"
"# Trace 1"
Frequency, Formatted Data, Formatted Data
+3.00000000000E+005, +8.55239884761E+001, +0.00000000000E+000
+2.17481250000E+006, +8.42550382216E+001, +0.00000000000E+000
+4.04962500000E+006, +8.13451496499E+001, +0.00000000000E+000
+5.92443750000E+006, +7.81577876044E+001, +0.00000000000E+000
+7.79925000000E+006, +7.48954559879E+001, +0.00000000000E+000
+9.67406250000E+006, +7.15837166684E+001, +0.00000000000E+000
+1.15488750000E+007, +6.82628272512E+001, +0.00000000000E+000
+1.34236875000E+007, +6.49222895035E+001, +0.00000000000E+000
+1.52985000000E+007, +6.15808546500E+001, +0.00000000000E+000
+1.71733125000E+007, +5.82306407928E+001, +0.00000000000E+000
+1.90481250000E+007, +5.48801252353E+001, +0.00000000000E+000
+2.09229375000E+007, +5.15301480511E+001, +0.00000000000E+000
+2.27977500000E+007, +4.81796686000E+001, +0.00000000000E+000
+2.46725625000E+007, +4.49447160209E+001, +0.00000000000E+000
+2.65473750000E+007, +4.15885923208E+001, +0.00000000000E+000
+2.84221875000E+007, +3.82263758981E+001, +0.00000000000E+000
+3.02970000000E+007, +3.48659631725E+001, +0.00000000000E+000
+3.21718125000E+007, +3.15056731165E+001, +0.00000000000E+000
+3.40466250000E+007, +2.81468578486E+001, +0.00000000000E+000
+3.59214375000E+007, +2.47930539162E+001, +0.00000000000E+000
+3.77962500000E+007, +2.14378418725E+001, +0.00000000000E+000
+3.96710625000E+007, +1.80859091299E+001, +0.00000000000E+000
+4.15458750000E+007, +1.47342741119E+001, +0.00000000000E+000
+4.34206875000E+007, +1.13896278490E+001, +0.00000000000E+000
+4.52955000000E+007, +8.04590817221E+000, +0.00000000000E+000
+4.71703125000E+007, +4.69922436955E+000, +0.00000000000E+000
+4.90451250000E+007, +1.36223457345E+000, +0.00000000000E+000
+5.09199375000E+007, -1.97491862181E+000, +0.00000000000E+000
+5.27947500000E+007, -5.30882150001E+000, +0.00000000000E+000
+5.46695625000E+007, -8.63739396120E+000, +0.00000000000E+000
+5.65443750000E+007, -1.19651259495E+001, +0.00000000000E+000
+5.84191875000E+007, -1.52857167047E+001, +0.00000000000E+000
+6.02940000000E+007, -1.86095231943E+001, +0.00000000000E+000
+6.21688125000E+007, -2.19276124914E+001, +0.00000000000E+000
+6.40436250000E+007, -2.52467648579E+001, +0.00000000000E+000
+6.59184375000E+007, -2.85613032646E+001, +0.00000000000E+000
+6.77932500000E+007, -3.18693976826E+001, +0.00000000000E+000
+6.96680625000E+007, -3.51759817998E+001, +0.00000000000E+000
+7.15428750000E+007, -3.84825581049E+001, +0.00000000000E+000
+7.34176875000E+007, -4.17832528453E+001, +0.00000000000E+000
+7.52925000000E+007, -4.50815836862E+001, +0.00000000000E+000
+7.71673125000E+007, -4.83724501943E+001, +0.00000000000E+000
+7.90421250000E+007, -5.16588008480E+001, +0.00000000000E+000
+8.09169375000E+007, -5.49425772407E+001, +0.00000000000E+000
+8.27917500000E+007, -5.82245863471E+001, +0.00000000000E+000
+8.46665625000E+007, -6.15033231357E+001, +0.00000000000E+000
+8.65413750000E+007, -6.47749211117E+001, +0.00000000000E+000
+8.84161875000E+007, -6.80416829752E+001, +0.00000000000E+000
+9.02910000000E+007, -7.13113468407E+001, +0.00000000000E+000
+9.21658125000E+007, -7.45750579268E+001, +0.00000000000E+000
+9.40406250000E+007, -7.78307412950E+001, +0.00000000000E+000
+9.59154375000E+007, -8.10854821329E+001, +0.00000000000E+000
+9.77902500000E+007, -8.43361045459E+001, +0.00000000000E+000
+9.96650625000E+007, -8.75853412070E+001, +0.00000000000E+000
+1.01539875000E+008, -9.08309106340E+001, +0.00000000000E+000
+1.03414687500E+008, -9.40709399558E+001, +0.00000000000E+000
+1.05289500000E+008, -9.73124902042E+001, +0.00000000000E+000
+1.07164312500E+008, -1.00542811373E+002, +0.00000000000E+000
+1.09039125000E+008, -1.03773965354E+002, +0.00000000000E+000
+1.10913937500E+008, -1.06996520941E+002, +0.00000000000E+000
+1.12788750000E+008, -1.10217531748E+002, +0.00000000000E+000
+1.14663562500E+008, -1.13435595132E+002, +0.00000000000E+000
+1.16538375000E+008, -1.16648651388E+002, +0.00000000000E+000
+1.18413187500E+008, -1.19855525015E+002, +0.00000000000E+000
+1.20288000000E+008, -1.23061907987E+002, +0.00000000000E+000
+1.22162812500E+008, -1.26263407548E+002, +0.00000000000E+000
+1.24037625000E+008, -1.29464499920E+002, +0.00000000000E+000
+1.25912437500E+008, -1.32664628467E+002, +0.00000000000E+000
+1.27787250000E+008, -1.35859505522E+002, +0.00000000000E+000
+1.29662062500E+008, -1.39049752710E+002, +0.00000000000E+000
+1.31536875000E+008, -1.42236755552E+002, +0.00000000000E+000
+1.33411687500E+008, -1.45420317179E+002, +0.00000000000E+000
+1.35286500000E+008, -1.48600114731E+002, +0.00000000000E+000
+1.37161312500E+008, -1.51775485750E+002, +0.00000000000E+000
+1.39036125000E+008, -1.54947706770E+002, +0.00000000000E+000
+1.40910937500E+008, -1.58120111819E+002, +0.00000000000E+000
+1.42785750000E+008, -1.61286476016E+002, +0.00000000000E+000
+1.44660562500E+008, -1.64447351946E+002, +0.00000000000E+000
+1.46535375000E+008, -1.67605426229E+002, +0.00000000000E+000
+1.48410187500E+008, -1.70764129358E+002, +0.00000000000E+000
+1.50285000000E+008, -1.73917597120E+002, +0.00000000000E+000
+1.52159812500E+008, -1.77067869920E+002, +0.00000000000E+000
+1.54034625000E+008, +1.79783121559E+002, +0.00000000000E+000
+1.55909437500E+008, +1.76639390145E+002, +0.00000000000E+000
+1.57784250000E+008, +1.73496738695E+002, +0.00000000000E+000
+1.59659062500E+008, +1.70362191080E+002, +0.00000000000E+000
+1.61533875000E+008, +1.67222636785E+002, +0.00000000000E+000
+1.63408687500E+008, +1.64088010838E+002, +0.00000000000E+000
+1.65283500000E+008, +1.60955330869E+002, +0.00000000000E+000
+1.67158312500E+008, +1.57823845902E+002, +0.00000000000E+000
+1.69033125000E+008, +1.54697057917E+002, +0.00000000000E+000
+1.70907937500E+008, +1.51570560832E+002, +0.00000000000E+000
+1.72782750000E+008, +1.48448020306E+002, +0.00000000000E+000
+1.74657562500E+008, +1.45329763784E+002, +0.00000000000E+000
+1.76532375000E+008, +1.42214352432E+002, +0.00000000000E+000
+1.78407187500E+008, +1.39100368447E+002, +0.00000000000E+000
+1.80282000000E+008, +1.35985266937E+002, +0.00000000000E+000
+1.82156812500E+008, +1.32873121378E+002, +0.00000000000E+000
+1.84031625000E+008, +1.29764486342E+002, +0.00000000000E+000
+1.85906437500E+008, +1.26656539024E+002, +0.00000000000E+000
+1.87781250000E+008, +1.23552807370E+002, +0.00000000000E+000
+1.89656062500E+008, +1.20446384184E+002, +0.00000000000E+000
+1.91530875000E+008, +1.17340844532E+002, +0.00000000000E+000
+1.93405687500E+008, +1.14236174467E+002, +0.00000000000E+000
+1.95280500000E+008, +1.11137878836E+002, +0.00000000000E+000
+1.97155312500E+008, +1.08040729667E+002, +0.00000000000E+000
+1.99030125000E+008, +1.04944163814E+002, +0.00000000000E+000
+2.00904937500E+008, +1.01847573346E+002, +0.00000000000E+000
+2.02779750000E+008, +9.87541710685E+001, +0.00000000000E+000
+2.04654562500E+008, +9.56619654405E+001, +0.00000000000E+000
+2.06529375000E+008, +9.25675189342E+001, +0.00000000000E+000
+2.08404187500E+008, +8.94802312039E+001, +0.00000000000E+000
+2.10279000000E+008, +8.63918745067E+001, +0.00000000000E+000
+2.12153812500E+008, +8.33067524019E+001, +0.00000000000E+000
+2.14028625000E+008, +8.02246585068E+001, +0.00000000000E+000
+2.15903437500E+008, +7.71422295312E+001, +0.00000000000E+000
+2.17778250000E+008, +7.40637447126E+001, +0.00000000000E+000
+2.19653062500E+008, +7.09843665903E+001, +0.00000000000E+000
+2.21527875000E+008, +6.79052866330E+001, +0.00000000000E+000
+2.23402687500E+008, +6.48292946701E+001, +0.00000000000E+000
+2.25277500000E+008, +6.17561006022E+001, +0.00000000000E+000
+2.27152312500E+008, +5.86857725397E+001, +0.00000000000E+000
+2.29027125000E+008, +5.56180715134E+001, +0.00000000000E+000
+2.30901937500E+008, +5.25508306970E+001, +0.00000000000E+000
+2.32776750000E+008, +4.94837288254E+001, +0.00000000000E+000
+2.34651562500E+008, +4.64191219940E+001, +0.00000000000E+000
+2.36526375000E+008, +4.33607333892E+001, +0.00000000000E+000
+2.38401187500E+008, +4.03017590357E+001, +0.00000000000E+000
+2.40276000000E+008, +3.72487777026E+001, +0.00000000000E+000
+2.42150812500E+008, +3.41945389030E+001, +0.00000000000E+000
+2.44025625000E+008, +3.11385867155E+001, +0.00000000000E+000
+2.45900437500E+008, +2.80925981114E+001, +0.00000000000E+000
+2.47775250000E+008, +2.50438437030E+001, +0.00000000000E+000
+2.49650062500E+008, +2.19975559460E+001, +0.00000000000E+000
+2.51524875000E+008, +1.89534513933E+001, +0.00000000000E+000
+2.53399687500E+008, +1.59087709591E+001, +0.00000000000E+000
+2.55274500000E+008, +1.28646006485E+001, +0.00000000000E+000
+2.57149312500E+008, +9.82135849767E+000, +0.00000000000E+000
+2.59024125000E+008, +6.78453603792E+000, +0.00000000000E+000
+2.60898937500E+008, +3.74506876999E+000, +0.00000000000E+000
+2.62773750000E+008, +7.08710812838E-001, +0.00000000000E+000
+2.64648562500E+008, -2.33037558207E+000, +0.00000000000E+000
+2.66523375000E+008, -5.37085463343E+000, +0.00000000000E+000
+2.68398187500E+008, -8.40632776551E+000, +0.00000000000E+000
+2.70273000000E+008, -1.14435057280E+001, +0.00000000000E+000
+2.72147812500E+008, -1.44832525775E+001, +0.00000000000E+000
+2.74022625000E+008, -1.75223656336E+001, +0.00000000000E+000
+2.75897437500E+008, -2.05606010110E+001, +0.00000000000E+000
+2.77772250000E+008, -2.35970089131E+001, +0.00000000000E+000
+2.79647062500E+008, -2.66355313482E+001, +0.00000000000E+000
+2.81521875000E+008, -2.96727485559E+001, +0.00000000000E+000
+2.83396687500E+008, -3.27151251984E+001, +0.00000000000E+000
+2.85271500000E+008, -3.57528429231E+001, +0.00000000000E+000
+2.87146312500E+008, -3.87934979205E+001, +0.00000000000E+000
+2.89021125000E+008, -4.18337750183E+001, +0.00000000000E+000
+2.90895937500E+008, -4.48688331882E+001, +0.00000000000E+000
+2.92770750000E+008, -4.79121329387E+001, +0.00000000000E+000
+2.94645562500E+008, -5.09490016678E+001, +0.00000000000E+000
+2.96520375000E+008, -5.39899720970E+001, +0.00000000000E+000
+2.98395187500E+008, -5.70305129217E+001, +0.00000000000E+000
+3.00270000000E+008, -6.00686011068E+001, +0.00000000000E+000
+3.02144812500E+008, -6.31048839245E+001, +0.00000000000E+000
+3.04019625000E+008, -6.61396684796E+001, +0.00000000000E+000
+3.05894437500E+008, -6.91819030177E+001, +0.00000000000E+000
+3.07769250000E+008, -7.22177342651E+001, +0.00000000000E+000
+3.09644062500E+008, -7.52556596879E+001, +0.00000000000E+000
+3.11518875000E+008, -7.82905341666E+001, +0.00000000000E+000
+3.13393687500E+008, -8.13218244626E+001, +0.00000000000E+000
+3.15268500000E+008, -8.43560623558E+001, +0.00000000000E+000
+3.17143312500E+008, -8.73884401359E+001, +0.00000000000E+000
+3.19018125000E+008, -9.04203094559E+001, +0.00000000000E+000
+3.20892937500E+008, -9.34530195846E+001, +0.00000000000E+000
+3.22767750000E+008, -9.64853604859E+001, +0.00000000000E+000
+3.24642562500E+008, -9.95191495759E+001, +0.00000000000E+000
+3.26517375000E+008, -1.02548451474E+002, +0.00000000000E+000
+3.28392187500E+008, -1.05579194684E+002, +0.00000000000E+000
+3.30267000000E+008, -1.08611520870E+002, +0.00000000000E+000
+3.32141812500E+008, -1.11645295047E+002, +0.00000000000E+000
+3.34016625000E+008, -1.14679902207E+002, +0.00000000000E+000
+3.35891437500E+008, -1.17715430412E+002, +0.00000000000E+000
+3.37766250000E+008, -1.20750569782E+002, +0.00000000000E+000
+3.39641062500E+008, -1.23784015760E+002, +0.00000000000E+000
+3.41515875000E+008, -1.26820803191E+002, +0.00000000000E+000
+3.43390687500E+008, -1.29857794071E+002, +0.00000000000E+000
+3.45265500000E+008, -1.32895125229E+002, +0.00000000000E+000
+3.47140312500E+008, -1.35931079121E+002, +0.00000000000E+000
+3.49015125000E+008, -1.38970983088E+002, +0.00000000000E+000
+3.50889937500E+008, -1.42012250366E+002, +0.00000000000E+000
+3.52764750000E+008, -1.45049847898E+002, +0.00000000000E+000
+3.54639562500E+008, -1.48090516896E+002, +0.00000000000E+000
+3.56514375000E+008, -1.51135708422E+002, +0.00000000000E+000
+3.58389187500E+008, -1.54179174717E+002, +0.00000000000E+000
+3.60264000000E+008, -1.57223129256E+002, +0.00000000000E+000
+3.62138812500E+008, -1.60270309534E+002, +0.00000000000E+000
+3.64013625000E+008, -1.63316766173E+002, +0.00000000000E+000
+3.65888437500E+008, -1.66361039144E+002, +0.00000000000E+000
+3.67763250000E+008, -1.69406084977E+002, +0.00000000000E+000
+3.69638062500E+008, -1.72452359059E+002, +0.00000000000E+000
+3.71512875000E+008, -1.75499248209E+002, +0.00000000000E+000
+3.73387687500E+008, -1.78543979332E+002, +0.00000000000E+000
+3.75262500000E+008, +1.78407633899E+002, +0.00000000000E+000
+3.77137312500E+008, +1.75365452069E+002, +0.00000000000E+000
+3.79012125000E+008, +1.72318944834E+002, +0.00000000000E+000
+3.80886937500E+008, +1.69272108755E+002, +0.00000000000E+000
+3.82761750000E+008, +1.66228285214E+002, +0.00000000000E+000
+3.84636562500E+008, +1.63181011676E+002, +0.00000000000E+000
+3.86511375000E+008, +1.60130216761E+002, +0.00000000000E+000
+3.88386187500E+008, +1.57082092162E+002, +0.00000000000E+000
+3.90261000000E+008, +1.54035821294E+002, +0.00000000000E+000
+3.92135812500E+008, +1.50988380323E+002, +0.00000000000E+000
+3.94010625000E+008, +1.47936320055E+002, +0.00000000000E+000
+3.95885437500E+008, +1.44887628471E+002, +0.00000000000E+000
+3.97760250000E+008, +1.41838476739E+002, +0.00000000000E+000
+3.99635062500E+008, +1.38786051663E+002, +0.00000000000E+000
+4.01509875000E+008, +1.35731985977E+002, +0.00000000000E+000
+4.03384687500E+008, +1.32681927586E+002, +0.00000000000E+000
+4.05259500000E+008, +1.29629063670E+002, +0.00000000000E+000
+4.07134312500E+008, +1.26576873732E+002, +0.00000000000E+000
+4.09009125000E+008, +1.23522920404E+002, +0.00000000000E+000
+4.10883937500E+008, +1.20469953124E+002, +0.00000000000E+000
+4.12758750000E+008, +1.17414528905E+002, +0.00000000000E+000
+4.14633562500E+008, +1.14357638376E+002, +0.00000000000E+000
+4.16508375000E+008, +1.11301191601E+002, +0.00000000000E+000
+4.18383187500E+008, +1.08245837872E+002, +0.00000000000E+000
+4.20258000000E+008, +1.05185791640E+002, +0.00000000000E+000
+4.22132812500E+008, +1.02126068942E+002, +0.00000000000E+000
+4.24007625000E+008, +9.90654923710E+001, +0.00000000000E+000
+4.25882437500E+008, +9.60069063476E+001, +0.00000000000E+000
+4.27757250000E+008, +9.29466378989E+001, +0.00000000000E+000
+4.29632062500E+008, +8.98840944005E+001, +0.00000000000E+000
+4.31506875000E+008, +8.68222508431E+001, +0.00000000000E+000
+4.33381687500E+008, +8.37595031637E+001, +0.00000000000E+000
+4.35256500000E+008, +8.06928808629E+001, +0.00000000000E+000
+4.37131312500E+008, +7.76302557874E+001, +0.00000000000E+000
+4.39006125000E+008, +7.45619757977E+001, +0.00000000000E+000
+4.40880937500E+008, +7.14957573566E+001, +0.00000000000E+000
+4.42755750000E+008, +6.84258774311E+001, +0.00000000000E+000
+4.44630562500E+008, +6.53571988122E+001, +0.00000000000E+000
+4.46505375000E+008, +6.22862805576E+001, +0.00000000000E+000
+4.48380187500E+008, +5.92132375378E+001, +0.00000000000E+000
+4.50255000000E+008, +5.61413052827E+001, +0.00000000000E+000
+4.52129812500E+008, +5.30660763308E+001, +0.00000000000E+000
+4.54004625000E+008, +4.99889808006E+001, +0.00000000000E+000
+4.55879437500E+008, +4.69131961360E+001, +0.00000000000E+000
+4.57754250000E+008, +4.38356215562E+001, +0.00000000000E+000
+4.59629062500E+008, +4.07571677079E+001, +0.00000000000E+000
+4.61503875000E+008, +3.76809058278E+001, +0.00000000000E+000
+4.63378687500E+008, +3.45995424657E+001, +0.00000000000E+000
+4.65253500000E+008, +3.15154556359E+001, +0.00000000000E+000
+4.67128312500E+008, +2.84334708288E+001, +0.00000000000E+000
+4.69003125000E+008, +2.53455948204E+001, +0.00000000000E+000
+4.70877937500E+008, +2.22599396414E+001, +0.00000000000E+000
+4.72752750000E+008, +1.91747887319E+001, +0.00000000000E+000
+4.74627562500E+008, +1.60877977553E+001, +0.00000000000E+000
+4.76502375000E+008, +1.29985702921E+001, +0.00000000000E+000
+4.78377187500E+008, +9.90519650000E+000, +0.00000000000E+000
+4.80252000000E+008, +6.81264498072E+000, +0.00000000000E+000
+4.82126812500E+008, +3.72238658338E+000, +0.00000000000E+000
+4.84001625000E+008, +6.25441361693E-001, +0.00000000000E+000
+4.85876437500E+008, -2.46710736503E+000, +0.00000000000E+000
+4.87751250000E+008, -5.56345415818E+000, +0.00000000000E+000
+4.89626062500E+008, -8.65839012874E+000, +0.00000000000E+000
+4.91500875000E+008, -1.17576164843E+001, +0.00000000000E+000
+4.93375687500E+008, -1.48557217905E+001, +0.00000000000E+000
+4.95250500000E+008, -1.79529135944E+001, +0.00000000000E+000
+4.97125312500E+008, -2.10539868915E+001, +0.00000000000E+000
+4.99000125000E+008, -2.41538941186E+001, +0.00000000000E+000
+5.00874937500E+008, -2.72550756088E+001, +0.00000000000E+000
+5.02749750000E+008, -3.03578818748E+001, +0.00000000000E+000
+5.04624562500E+008, -3.34631240507E+001, +0.00000000000E+000
+5.06499375000E+008, -3.65654882503E+001, +0.00000000000E+000
+5.08374187500E+008, -3.96705851054E+001, +0.00000000000E+000
+5.10249000000E+008, -4.27744061181E+001, +0.00000000000E+000
+5.12123812500E+008, -4.58799518415E+001, +0.00000000000E+000
+5.13998625000E+008, -4.89888560320E+001, +0.00000000000E+000
+5.15873437500E+008, -5.20934105516E+001, +0.00000000000E+000
+5.17748250000E+008, -5.52039570112E+001, +0.00000000000E+000
+5.19623062500E+008, -5.83187579634E+001, +0.00000000000E+000
+5.21497875000E+008, -6.14327596515E+001, +0.00000000000E+000
+5.23372687500E+008, -6.45478150670E+001, +0.00000000000E+000
+5.25247500000E+008, -6.76592095156E+001, +0.00000000000E+000
+5.27122312500E+008, -7.07736784001E+001, +0.00000000000E+000
+5.28997125000E+008, -7.38890338784E+001, +0.00000000000E+000
+5.30871937500E+008, -7.70046846320E+001, +0.00000000000E+000
+5.32746750000E+008, -8.01205142136E+001, +0.00000000000E+000
+5.34621562500E+008, -8.32364393350E+001, +0.00000000000E+000
+5.36496375000E+008, -8.63501893961E+001, +0.00000000000E+000
+5.38371187500E+008, -8.94650569772E+001, +0.00000000000E+000
+5.40246000000E+008, -9.25791804845E+001, +0.00000000000E+000
+5.42120812500E+008, -9.56923897545E+001, +0.00000000000E+000
+5.43995625000E+008, -9.88068735177E+001, +0.00000000000E+000
+5.45870437500E+008, -1.01921820651E+002, +0.00000000000E+000
+5.47745250000E+008, -1.05037252305E+002, +0.00000000000E+000
+5.49620062500E+008, -1.08151539726E+002, +0.00000000000E+000
+5.51494875000E+008, -1.11265872275E+002, +0.00000000000E+000
+5.53369687500E+008, -1.14381711584E+002, +0.00000000000E+000
+5.55244500000E+008, -1.17504202078E+002, +0.00000000000E+000
+5.57119312500E+008, -1.20626721995E+002, +0.00000000000E+000
+5.58994125000E+008, -1.23745251639E+002, +0.00000000000E+000
+5.60868937500E+008, -1.26869199041E+002, +0.00000000000E+000
+5.62743750000E+008, -1.29991936265E+002, +0.00000000000E+000
+5.64618562500E+008, -1.33115035071E+002, +0.00000000000E+000
+5.66493375000E+008, -1.36238179784E+002, +0.00000000000E+000
+5.68368187500E+008, -1.39360681586E+002, +0.00000000000E+000
+5.70243000000E+008, -1.42485625495E+002, +0.00000000000E+000
+5.72117812500E+008, -1.45611537648E+002, +0.00000000000E+000
+5.73992625000E+008, -1.48737559660E+002, +0.00000000000E+000
+5.75867437500E+008, -1.51866909363E+002, +0.00000000000E+000
+5.77742250000E+008, -1.54996644013E+002, +0.00000000000E+000
+5.79617062500E+008, -1.58129951470E+002, +0.00000000000E+000
+5.81491875000E+008, -1.61261958991E+002, +0.00000000000E+000
+5.83366687500E+008, -1.64399995493E+002, +0.00000000000E+000
+5.85241500000E+008, -1.67537841063E+002, +0.00000000000E+000
+5.87116312500E+008, -1.70678794412E+002, +0.00000000000E+000
+5.88991125000E+008, -1.73823214562E+002, +0.00000000000E+000
+5.90865937500E+008, -1.76967182385E+002, +0.00000000000E+000
