"# Channel 3"
"# Trace 1"
Frequency, Formatted Data, Formatted Data
+3.00000000000E+005, -6.93845916533E-008, +0.00000000000E+000
+2.17481250000E+006, -4.91144660299E-008, +0.00000000000E+000
+4.04962500000E+006, -2.87111369607E-008, +0.00000000000E+000
+5.92443750000E+006, -1.86191470611E-008, +0.00000000000E+000
+7.79925000000E+006, -1.25380854927E-008, +0.00000000000E+000
+9.67406250000E+006, -8.46350276832E-009, +0.00000000000E+000
+1.15488750000E+007, -5.61265020719E-009, +0.00000000000E+000
+1.34236875000E+007, -3.36215929161E-009, +0.00000000000E+000
+1.52985000000E+007, -1.22891921412E-009, +0.00000000000E+000
+1.71733125000E+007, +1.26557244796E-009, +0.00000000000E+000
+1.90481250000E+007, +4.23607068545E-009, +0.00000000000E+000
+2.09229375000E+007, +6.65443545039E-009, +0.00000000000E+000
+2.27977500000E+007, +7.84057619148E-009, +0.00000000000E+000
+2.46725625000E+007, +1.12598655660E-008, +0.00000000000E+000
+2.65473750000E+007, +1.45584304955E-008, +0.00000000000E+000
+2.84221875000E+007, +1.54445072871E-008, +0.00000000000E+000
+3.02970000000E+007, +1.60164098836E-008, +0.00000000000E+000
+3.21718125000E+007, +1.62200966257E-008, +0.00000000000E+000
+3.40466250000E+007, +1.63935959737E-008, +0.00000000000E+000
+3.59214375000E+007, +1.65394815171E-008, +0.00000000000E+000
+3.77962500000E+007, +1.65860556729E-008, +0.00000000000E+000
+3.96710625000E+007, +1.66234201385E-008, +0.00000000000E+000
+4.15458750000E+007, +1.66324141477E-008, +0.00000000000E+000
+4.34206875000E+007, +1.66084842610E-008, +0.00000000000E+000
+4.52955000000E+007, +1.66067251010E-008, +0.00000000000E+000
+4.71703125000E+007, +1.65790910792E-008, +0.00000000000E+000
+4.90451250000E+007, +1.65312176375E-008, +0.00000000000E+000
+5.09199375000E+007, +1.64603267821E-008, +0.00000000000E+000
+5.27947500000E+007, +1.62894575030E-008, +0.00000000000E+000
+5.46695625000E+007, +1.60816358781E-008, +0.00000000000E+000
+5.65443750000E+007, +1.57589066370E-008, +0.00000000000E+000
+5.84191875000E+007, +1.51397064210E-008, +0.00000000000E+000
+6.02940000000E+007, +1.44522409998E-008, +0.00000000000E+000
+6.21688125000E+007, +1.34918538655E-008, +0.00000000000E+000
+6.40436250000E+007, +1.26797646607E-008, +0.00000000000E+000
+6.59184375000E+007, +1.20515641522E-008, +0.00000000000E+000
+6.77932500000E+007, +1.17594780707E-008, +0.00000000000E+000
+6.96680625000E+007, +1.17476169927E-008, +0.00000000000E+000
+7.15428750000E+007, +1.19706278216E-008, +0.00000000000E+000
+7.34176875000E+007, +1.24136530248E-008, +0.00000000000E+000
+7.52925000000E+007, +1.29482044372E-008, +0.00000000000E+000
+7.71673125000E+007, +1.35470942893E-008, +0.00000000000E+000
+7.90421250000E+007, +1.40796846157E-008, +0.00000000000E+000
+8.09169375000E+007, +1.45179272638E-008, +0.00000000000E+000
+8.27917500000E+007, +1.48323437361E-008, +0.00000000000E+000
+8.46665625000E+007, +1.51057528622E-008, +0.00000000000E+000
+8.65413750000E+007, +1.52818525847E-008, +0.00000000000E+000
+8.84161875000E+007, +1.54280846109E-008, +0.00000000000E+000
+9.02910000000E+007, +1.55131963187E-008, +0.00000000000E+000
+9.21658125000E+007, +1.55788128503E-008, +0.00000000000E+000
+9.40406250000E+007, +1.56029836103E-008, +0.00000000000E+000
+9.59154375000E+007, +1.56280670190E-008, +0.00000000000E+000
+9.77902500000E+007, +1.55983452946E-008, +0.00000000000E+000
+9.96650625000E+007, +1.55972956063E-008, +0.00000000000E+000
+1.01539875000E+008, +1.55322455758E-008, +0.00000000000E+000
+1.03414687500E+008, +1.54656230130E-008, +0.00000000000E+000
+1.05289500000E+008, +1.53743634155E-008, +0.00000000000E+000
+1.07164312500E+008, +1.52478381188E-008, +0.00000000000E+000
+1.09039125000E+008, +1.51021408796E-008, +0.00000000000E+000
+1.10913937500E+008, +1.48902178028E-008, +0.00000000000E+000
+1.12788750000E+008, +1.46367243667E-008, +0.00000000000E+000
+1.14663562500E+008, +1.42902646194E-008, +0.00000000000E+000
+1.16538375000E+008, +1.38598641105E-008, +0.00000000000E+000
+1.18413187500E+008, +1.33200798193E-008, +0.00000000000E+000
+1.20288000000E+008, +1.26678381423E-008, +0.00000000000E+000
+1.22162812500E+008, +1.19000772605E-008, +0.00000000000E+000
+1.24037625000E+008, +1.11665830011E-008, +0.00000000000E+000
+1.25912437500E+008, +1.04707446402E-008, +0.00000000000E+000
+1.27787250000E+008, +9.94588772081E-009, +0.00000000000E+000
+1.29662062500E+008, +9.51092031694E-009, +0.00000000000E+000
+1.31536875000E+008, +9.17323722606E-009, +0.00000000000E+000
+1.33411687500E+008, +8.91818581118E-009, +0.00000000000E+000
+1.35286500000E+008, +8.71000126483E-009, +0.00000000000E+000
+1.37161312500E+008, +8.55762592805E-009, +0.00000000000E+000
+1.39036125000E+008, +8.44868944463E-009, +0.00000000000E+000
+1.40910937500E+008, +8.36559270106E-009, +0.00000000000E+000
+1.42785750000E+008, +8.30703922130E-009, +0.00000000000E+000
+1.44660562500E+008, +8.27845880454E-009, +0.00000000000E+000
+1.46535375000E+008, +8.26740247455E-009, +0.00000000000E+000
+1.48410187500E+008, +8.26960735407E-009, +0.00000000000E+000
+1.50285000000E+008, +8.31003469102E-009, +0.00000000000E+000
+1.52159812500E+008, +8.34268396692E-009, +0.00000000000E+000
+1.54034625000E+008, +8.42555472540E-009, +0.00000000000E+000
+1.55909437500E+008, +8.50474318824E-009, +0.00000000000E+000
+1.57784250000E+008, +8.63814527616E-009, +0.00000000000E+000
+1.59659062500E+008, +8.76878629814E-009, +0.00000000000E+000
+1.61533875000E+008, +8.96438377282E-009, +0.00000000000E+000
+1.63408687500E+008, +9.17856675838E-009, +0.00000000000E+000
+1.65283500000E+008, +9.43070596768E-009, +0.00000000000E+000
+1.67158312500E+008, +9.73732874675E-009, +0.00000000000E+000
+1.69033125000E+008, +1.00965729818E-008, +0.00000000000E+000
+1.70907937500E+008, +1.04716907634E-008, +0.00000000000E+000
+1.72782750000E+008, +1.08974430373E-008, +0.00000000000E+000
+1.74657562500E+008, +1.13137266707E-008, +0.00000000000E+000
+1.76532375000E+008, +1.17311139176E-008, +0.00000000000E+000
+1.78407187500E+008, +1.21368939502E-008, +0.00000000000E+000
+1.80282000000E+008, +1.24740870434E-008, +0.00000000000E+000
+1.82156812500E+008, +1.27946038566E-008, +0.00000000000E+000
+1.84031625000E+008, +1.30453082872E-008, +0.00000000000E+000
+1.85906437500E+008, +1.32613148589E-008, +0.00000000000E+000
+1.87781250000E+008, +1.34466790175E-008, +0.00000000000E+000
+1.89656062500E+008, +1.35970471845E-008, +0.00000000000E+000
+1.91530875000E+008, +1.36925835869E-008, +0.00000000000E+000
+1.93405687500E+008, +1.37582597160E-008, +0.00000000000E+000
+1.95280500000E+008, +1.38145440406E-008, +0.00000000000E+000
+1.97155312500E+008, +1.38298229854E-008, +0.00000000000E+000
+1.99030125000E+008, +1.38331143706E-008, +0.00000000000E+000
+2.00904937500E+008, +1.37885775675E-008, +0.00000000000E+000
+2.02779750000E+008, +1.37566429349E-008, +0.00000000000E+000
+2.04654562500E+008, +1.36524840107E-008, +0.00000000000E+000
+2.06529375000E+008, +1.35407145529E-008, +0.00000000000E+000
+2.08404187500E+008, +1.33872462412E-008, +0.00000000000E+000
+2.10279000000E+008, +1.32207026061E-008, +0.00000000000E+000
+2.12153812500E+008, +1.30055910959E-008, +0.00000000000E+000
+2.14028625000E+008, +1.27567057314E-008, +0.00000000000E+000
+2.15903437500E+008, +1.24332991441E-008, +0.00000000000E+000
+2.17778250000E+008, +1.21096492351E-008, +0.00000000000E+000
+2.19653062500E+008, +1.17688486994E-008, +0.00000000000E+000
+2.21527875000E+008, +1.14387591789E-008, +0.00000000000E+000
+2.23402687500E+008, +1.10956203035E-008, +0.00000000000E+000
+2.25277500000E+008, +1.08372318536E-008, +0.00000000000E+000
+2.27152312500E+008, +1.06250279601E-008, +0.00000000000E+000
+2.29027125000E+008, +1.04969590854E-008, +0.00000000000E+000
+2.30901937500E+008, +1.04876928879E-008, +0.00000000000E+000
+2.32776750000E+008, +1.05674706506E-008, +0.00000000000E+000
+2.34651562500E+008, +1.07375204503E-008, +0.00000000000E+000
+2.36526375000E+008, +1.10464956097E-008, +0.00000000000E+000
+2.38401187500E+008, +1.15373575923E-008, +0.00000000000E+000
+2.40276000000E+008, +1.20529809604E-008, +0.00000000000E+000
+2.42150812500E+008, +1.26325241215E-008, +0.00000000000E+000
+2.44025625000E+008, +1.31538327543E-008, +0.00000000000E+000
+2.45900437500E+008, +1.36397737583E-008, +0.00000000000E+000
+2.47775250000E+008, +1.39882953569E-008, +0.00000000000E+000
+2.49650062500E+008, +1.42965495455E-008, +0.00000000000E+000
+2.51524875000E+008, +1.44718533246E-008, +0.00000000000E+000
+2.53399687500E+008, +1.46805290657E-008, +0.00000000000E+000
+2.55274500000E+008, +1.47582173634E-008, +0.00000000000E+000
+2.57149312500E+008, +1.48396308059E-008, +0.00000000000E+000
+2.59024125000E+008, +1.48614659227E-008, +0.00000000000E+000
+2.60898937500E+008, +1.48763012793E-008, +0.00000000000E+000
+2.62773750000E+008, +1.48917982656E-008, +0.00000000000E+000
+2.64648562500E+008, +1.48517218151E-008, +0.00000000000E+000
+2.66523375000E+008, +1.47902293098E-008, +0.00000000000E+000
+2.68398187500E+008, +1.47099305703E-008, +0.00000000000E+000
+2.70273000000E+008, +1.46396374833E-008, +0.00000000000E+000
+2.72147812500E+008, +1.44800478500E-008, +0.00000000000E+000
+2.74022625000E+008, +1.43253181033E-008, +0.00000000000E+000
+2.75897437500E+008, +1.41055032867E-008, +0.00000000000E+000
+2.77772250000E+008, +1.38327090485E-008, +0.00000000000E+000
+2.79647062500E+008, +1.34874159165E-008, +0.00000000000E+000
+2.81521875000E+008, +1.30965337227E-008, +0.00000000000E+000
+2.83396687500E+008, +1.25734098999E-008, +0.00000000000E+000
+2.85271500000E+008, +1.19357423620E-008, +0.00000000000E+000
+2.87146312500E+008, +1.12639392262E-008, +0.00000000000E+000
+2.89021125000E+008, +1.05694850957E-008, +0.00000000000E+000
+2.90895937500E+008, +9.90538929124E-009, +0.00000000000E+000
+2.92770750000E+008, +9.35944649990E-009, +0.00000000000E+000
+2.94645562500E+008, +8.93148544488E-009, +0.00000000000E+000
+2.96520375000E+008, +8.57077845871E-009, +0.00000000000E+000
+2.98395187500E+008, +8.34624875034E-009, +0.00000000000E+000
+3.00270000000E+008, +8.14887481003E-009, +0.00000000000E+000
+3.02144812500E+008, +8.09225200562E-009, +0.00000000000E+000
+3.04019625000E+008, +8.13356118381E-009, +0.00000000000E+000
+3.05894437500E+008, +8.25853575381E-009, +0.00000000000E+000
+3.07769250000E+008, +8.60826815998E-009, +0.00000000000E+000
+3.09644062500E+008, +9.29203134056E-009, +0.00000000000E+000
+3.11518875000E+008, +1.05915239702E-008, +0.00000000000E+000
+3.13393687500E+008, +1.25090357860E-008, +0.00000000000E+000
+3.15268500000E+008, +1.39186055202E-008, +0.00000000000E+000
+3.17143312500E+008, +1.48256192999E-008, +0.00000000000E+000
+3.19018125000E+008, +1.52454796233E-008, +0.00000000000E+000
+3.20892937500E+008, +1.55329770376E-008, +0.00000000000E+000
+3.22767750000E+008, +1.56767707338E-008, +0.00000000000E+000
+3.24642562500E+008, +1.57802918963E-008, +0.00000000000E+000
+3.26517375000E+008, +1.58402179073E-008, +0.00000000000E+000
+3.28392187500E+008, +1.58855178575E-008, +0.00000000000E+000
+3.30267000000E+008, +1.58899988274E-008, +0.00000000000E+000
+3.32141812500E+008, +1.59142881921E-008, +0.00000000000E+000
+3.34016625000E+008, +1.59016762126E-008, +0.00000000000E+000
+3.35891437500E+008, +1.58840008327E-008, +0.00000000000E+000
+3.37766250000E+008, +1.58840778315E-008, +0.00000000000E+000
+3.39641062500E+008, +1.58190779991E-008, +0.00000000000E+000
+3.41515875000E+008, +1.57770260400E-008, +0.00000000000E+000
+3.43390687500E+008, +1.56891182692E-008, +0.00000000000E+000
+3.45265500000E+008, +1.56256613871E-008, +0.00000000000E+000
+3.47140312500E+008, +1.55000950044E-008, +0.00000000000E+000
+3.49015125000E+008, +1.53610170436E-008, +0.00000000000E+000
+3.50889937500E+008, +1.50997465787E-008, +0.00000000000E+000
+3.52764750000E+008, +1.48233997657E-008, +0.00000000000E+000
+3.54639562500E+008, +1.43061473338E-008, +0.00000000000E+000
+3.56514375000E+008, +1.34874269894E-008, +0.00000000000E+000
+3.58389187500E+008, +1.20730414145E-008, +0.00000000000E+000
+3.60264000000E+008, +1.00522481068E-008, +0.00000000000E+000
+3.62138812500E+008, +8.50860275506E-009, +0.00000000000E+000
+3.64013625000E+008, +7.48940531132E-009, +0.00000000000E+000
+3.65888437500E+008, +6.97204197715E-009, +0.00000000000E+000
+3.67763250000E+008, +6.57517732788E-009, +0.00000000000E+000
+3.69638062500E+008, +6.33442399469E-009, +0.00000000000E+000
+3.71512875000E+008, +6.13627770880E-009, +0.00000000000E+000
+3.73387687500E+008, +5.93909617956E-009, +0.00000000000E+000
+3.75262500000E+008, +5.77318107069E-009, +0.00000000000E+000
+3.77137312500E+008, +5.63927719049E-009, +0.00000000000E+000
+3.79012125000E+008, +5.47611109519E-009, +0.00000000000E+000
+3.80886937500E+008, +5.33365244076E-009, +0.00000000000E+000
+3.82761750000E+008, +5.18376262886E-009, +0.00000000000E+000
+3.84636562500E+008, +5.01516193629E-009, +0.00000000000E+000
+3.86511375000E+008, +4.84437801395E-009, +0.00000000000E+000
+3.88386187500E+008, +4.63444977277E-009, +0.00000000000E+000
+3.90261000000E+008, +4.41320031691E-009, +0.00000000000E+000
+3.92135812500E+008, +4.11786173663E-009, +0.00000000000E+000
+3.94010625000E+008, +3.81160727599E-009, +0.00000000000E+000
+3.95885437500E+008, +3.41303774502E-009, +0.00000000000E+000
+3.97760250000E+008, +3.02640658456E-009, +0.00000000000E+000
+3.99635062500E+008, +2.47957197051E-009, +0.00000000000E+000
+4.01509875000E+008, +1.92353891684E-009, +0.00000000000E+000
+4.03384687500E+008, +1.33983130577E-009, +0.00000000000E+000
+4.05259500000E+008, +7.57957702591E-010, +0.00000000000E+000
+4.07134312500E+008, +2.02554038603E-010, +0.00000000000E+000
+4.09009125000E+008, -2.22566502248E-010, +0.00000000000E+000
+4.10883937500E+008, -6.54881389552E-010, +0.00000000000E+000
+4.12758750000E+008, -9.81937517298E-010, +0.00000000000E+000
+4.14633562500E+008, -1.23745897251E-009, +0.00000000000E+000
+4.16508375000E+008, -1.46754215350E-009, +0.00000000000E+000
+4.18383187500E+008, -1.64806370212E-009, +0.00000000000E+000
+4.20258000000E+008, -1.75910053817E-009, +0.00000000000E+000
+4.22132812500E+008, -1.85913239860E-009, +0.00000000000E+000
+4.24007625000E+008, -1.94078928335E-009, +0.00000000000E+000
+4.25882437500E+008, -1.97893502926E-009, +0.00000000000E+000
+4.27757250000E+008, -1.98469509710E-009, +0.00000000000E+000
+4.29632062500E+008, -1.99791388055E-009, +0.00000000000E+000
+4.31506875000E+008, -1.94781061538E-009, +0.00000000000E+000
+4.33381687500E+008, -1.88879464645E-009, +0.00000000000E+000
+4.35256500000E+008, -1.77228829247E-009, +0.00000000000E+000
+4.37131312500E+008, -1.64831254186E-009, +0.00000000000E+000
+4.39006125000E+008, -1.44875278047E-009, +0.00000000000E+000
+4.40880937500E+008, -1.21437607299E-009, +0.00000000000E+000
+4.42755750000E+008, -8.95702290279E-010, +0.00000000000E+000
+4.44630562500E+008, -5.84971665847E-010, +0.00000000000E+000
+4.46505375000E+008, -9.60570988694E-011, +0.00000000000E+000
+4.48380187500E+008, +3.69034652346E-010, +0.00000000000E+000
+4.50255000000E+008, +8.88125269876E-010, +0.00000000000E+000
+4.52129812500E+008, +1.39563699738E-009, +0.00000000000E+000
+4.54004625000E+008, +1.89110856835E-009, +0.00000000000E+000
+4.55879437500E+008, +2.25224954482E-009, +0.00000000000E+000
+4.57754250000E+008, +2.62773661198E-009, +0.00000000000E+000
+4.59629062500E+008, +2.87750538988E-009, +0.00000000000E+000
+4.61503875000E+008, +3.07469798784E-009, +0.00000000000E+000
+4.63378687500E+008, +3.22259698170E-009, +0.00000000000E+000
+4.65253500000E+008, +3.32716495728E-009, +0.00000000000E+000
+4.67128312500E+008, +3.36340521354E-009, +0.00000000000E+000
+4.69003125000E+008, +3.40577771110E-009, +0.00000000000E+000
+4.70877937500E+008, +3.40849970533E-009, +0.00000000000E+000
+4.72752750000E+008, +3.35853866034E-009, +0.00000000000E+000
+4.74627562500E+008, +3.31538856612E-009, +0.00000000000E+000
+4.76502375000E+008, +3.23570399995E-009, +0.00000000000E+000
+4.78377187500E+008, +3.14388366482E-009, +0.00000000000E+000
+4.80252000000E+008, +3.03273493946E-009, +0.00000000000E+000
+4.82126812500E+008, +2.89885710712E-009, +0.00000000000E+000
+4.84001625000E+008, +2.76032963543E-009, +0.00000000000E+000
+4.85876437500E+008, +2.63760031736E-009, +0.00000000000E+000
+4.87751250000E+008, +2.48748438781E-009, +0.00000000000E+000
+4.89626062500E+008, +2.35004629597E-009, +0.00000000000E+000
+4.91500875000E+008, +2.20859645408E-009, +0.00000000000E+000
+4.93375687500E+008, +2.05478748973E-009, +0.00000000000E+000
+4.95250500000E+008, +1.98265326759E-009, +0.00000000000E+000
+4.97125312500E+008, +1.88000063257E-009, +0.00000000000E+000
+4.99000125000E+008, +1.79673405112E-009, +0.00000000000E+000
+5.00874937500E+008, +1.72830317812E-009, +0.00000000000E+000
+5.02749750000E+008, +1.70596050025E-009, +0.00000000000E+000
+5.04624562500E+008, +1.69348006452E-009, +0.00000000000E+000
+5.06499375000E+008, +1.69598934427E-009, +0.00000000000E+000
+5.08374187500E+008, +1.74980464851E-009, +0.00000000000E+000
+5.10249000000E+008, +1.81696545037E-009, +0.00000000000E+000
+5.12123812500E+008, +1.92121569573E-009, +0.00000000000E+000
+5.13998625000E+008, +2.05518674765E-009, +0.00000000000E+000
+5.15873437500E+008, +2.20317778197E-009, +0.00000000000E+000
+5.17748250000E+008, +2.40232967357E-009, +0.00000000000E+000
+5.19623062500E+008, +2.62570108190E-009, +0.00000000000E+000
+5.21497875000E+008, +2.86088438426E-009, +0.00000000000E+000
+5.23372687500E+008, +3.16192449367E-009, +0.00000000000E+000
+5.25247500000E+008, +3.44726267051E-009, +0.00000000000E+000
+5.27122312500E+008, +3.80817626051E-009, +0.00000000000E+000
+5.28997125000E+008, +4.17670604129E-009, +0.00000000000E+000
+5.30871937500E+008, +4.58957993403E-009, +0.00000000000E+000
+5.32746750000E+008, +4.98474615381E-009, +0.00000000000E+000
+5.34621562500E+008, +5.44419955852E-009, +0.00000000000E+000
+5.36496375000E+008, +5.87313856853E-009, +0.00000000000E+000
+5.38371187500E+008, +6.32905259195E-009, +0.00000000000E+000
+5.40246000000E+008, +6.76920461640E-009, +0.00000000000E+000
+5.42120812500E+008, +7.18018817722E-009, +0.00000000000E+000
+5.43995625000E+008, +7.58017626272E-009, +0.00000000000E+000
+5.45870437500E+008, +7.96216037640E-009, +0.00000000000E+000
+5.47745250000E+008, +8.30480984086E-009, +0.00000000000E+000
+5.49620062500E+008, +8.60367068139E-009, +0.00000000000E+000
+5.51494875000E+008, +8.88619413276E-009, +0.00000000000E+000
+5.53369687500E+008, +9.12674353984E-009, +0.00000000000E+000
+5.55244500000E+008, +9.32763181282E-009, +0.00000000000E+000
+5.57119312500E+008, +9.49539526731E-009, +0.00000000000E+000
+5.58994125000E+008, +9.63299905196E-009, +0.00000000000E+000
+5.60868937500E+008, +9.73796314391E-009, +0.00000000000E+000
+5.62743750000E+008, +9.80646217483E-009, +0.00000000000E+000
+5.64618562500E+008, +9.83256785139E-009, +0.00000000000E+000
+5.66493375000E+008, +9.85733367397E-009, +0.00000000000E+000
+5.68368187500E+008, +9.83073577071E-009, +0.00000000000E+000
+5.70243000000E+008, +9.78251888050E-009, +0.00000000000E+000
+5.72117812500E+008, +9.70985761902E-009, +0.00000000000E+000
+5.73992625000E+008, +9.59190933441E-009, +0.00000000000E+000
+5.75867437500E+008, +9.45647868252E-009, +0.00000000000E+000
+5.77742250000E+008, +9.29305920086E-009, +0.00000000000E+000
+5.79617062500E+008, +9.12035579497E-009, +0.00000000000E+000
+5.81491875000E+008, +8.89564141224E-009, +0.00000000000E+000
+5.83366687500E+008, +8.67637544649E-009, +0.00000000000E+000
+5.85241500000E+008, +8.44204511753E-009, +0.00000000000E+000
+5.87116312500E+008, +8.20347496473E-009, +0.00000000000E+000
+5.88991125000E+008, +7.95042312944E-009, +0.00000000000E+000
+5.90865937500E+008, +7.69816072632E-009, +0.00000000000E+000
