"# Channel 1"
"# Trace 1"
Frequency, Formatted Data, Formatted Data
+3.00000000000E+005, -1.73001146236E+001, +0.00000000000E+000
+2.17481250000E+006, -1.81702962204E+001, +0.00000000000E+000
+4.04962500000E+006, -1.89858073853E+001, +0.00000000000E+000
+5.92443750000E+006, -1.98660089114E+001, +0.00000000000E+000
+7.79925000000E+006, -2.08225613689E+001, +0.00000000000E+000
+9.67406250000E+006, -2.18990127906E+001, +0.00000000000E+000
+1.15488750000E+007, -2.31479794583E+001, +0.00000000000E+000
+1.34236875000E+007, -2.47140192789E+001, +0.00000000000E+000
+1.52985000000E+007, -2.71397294691E+001, +0.00000000000E+000
+1.71733125000E+007, -2.93207066566E+001, +0.00000000000E+000
+1.90481250000E+007, -3.00379492222E+001, +0.00000000000E+000
+2.09229375000E+007, -3.02773466353E+001, +0.00000000000E+000
+2.27977500000E+007, -3.02888269097E+001, +0.00000000000E+000
+2.46725625000E+007, -3.07628354536E+001, +0.00000000000E+000
+2.65473750000E+007, -3.11737939511E+001, +0.00000000000E+000
+2.84221875000E+007, -3.15398708745E+001, +0.00000000000E+000
+3.02970000000E+007, -3.18541675081E+001, +0.00000000000E+000
+3.21718125000E+007, -3.21205094278E+001, +0.00000000000E+000
+3.40466250000E+007, -3.23414882621E+001, +0.00000000000E+000
+3.59214375000E+007, -3.25129745884E+001, +0.00000000000E+000
+3.77962500000E+007, -3.26421577467E+001, +0.00000000000E+000
+3.96710625000E+007, -3.27209099914E+001, +0.00000000000E+000
+4.15458750000E+007, -3.27508724414E+001, +0.00000000000E+000
+4.34206875000E+007, -3.27333506872E+001, +0.00000000000E+000
+4.52955000000E+007, -3.26585656225E+001, +0.00000000000E+000
+4.71703125000E+007, -3.25206891617E+001, +0.00000000000E+000
+4.90451250000E+007, -3.23055668502E+001, +0.00000000000E+000
+5.09199375000E+007, -3.19857498322E+001, +0.00000000000E+000
+5.27947500000E+007, -3.15089187829E+001, +0.00000000000E+000
+5.46695625000E+007, -3.07195544327E+001, +0.00000000000E+000
+5.65443750000E+007, -2.98346869354E+001, +0.00000000000E+000
+5.84191875000E+007, -2.94192477394E+001, +0.00000000000E+000
+6.02940000000E+007, -2.92403332505E+001, +0.00000000000E+000
+6.21688125000E+007, -2.92540161157E+001, +0.00000000000E+000
+6.40436250000E+007, -2.94313151279E+001, +0.00000000000E+000
+6.59184375000E+007, -2.97257314078E+001, +0.00000000000E+000
+6.77932500000E+007, -2.99749158650E+001, +0.00000000000E+000
+6.96680625000E+007, -3.01870943661E+001, +0.00000000000E+000
+7.15428750000E+007, -3.02951651731E+001, +0.00000000000E+000
+7.34176875000E+007, -3.03559338751E+001, +0.00000000000E+000
+7.52925000000E+007, -3.03617658640E+001, +0.00000000000E+000
+7.71673125000E+007, -3.03197598726E+001, +0.00000000000E+000
+7.90421250000E+007, -3.02606840416E+001, +0.00000000000E+000
+8.09169375000E+007, -3.01823197505E+001, +0.00000000000E+000
+8.27917500000E+007, -3.00984117050E+001, +0.00000000000E+000
+8.46665625000E+007, -3.00065115986E+001, +0.00000000000E+000
+8.65413750000E+007, -2.99146827582E+001, +0.00000000000E+000
+8.84161875000E+007, -2.98105609286E+001, +0.00000000000E+000
+9.02910000000E+007, -2.97074540718E+001, +0.00000000000E+000
+9.21658125000E+007, -2.96045971692E+001, +0.00000000000E+000
+9.40406250000E+007, -2.95000307539E+001, +0.00000000000E+000
+9.59154375000E+007, -2.94044356931E+001, +0.00000000000E+000
+9.77902500000E+007, -2.93022754047E+001, +0.00000000000E+000
+9.96650625000E+007, -2.92024154690E+001, +0.00000000000E+000
+1.01539875000E+008, -2.91154431886E+001, +0.00000000000E+000
+1.03414687500E+008, -2.90110849678E+001, +0.00000000000E+000
+1.05289500000E+008, -2.88850928558E+001, +0.00000000000E+000
+1.07164312500E+008, -2.87624620411E+001, +0.00000000000E+000
+1.09039125000E+008, -2.85838584886E+001, +0.00000000000E+000
+1.10913937500E+008, -2.83876000741E+001, +0.00000000000E+000
+1.12788750000E+008, -2.81651643287E+001, +0.00000000000E+000
+1.14663562500E+008, -2.80707573317E+001, +0.00000000000E+000
+1.16538375000E+008, -2.80538663653E+001, +0.00000000000E+000
+1.18413187500E+008, -2.82255266955E+001, +0.00000000000E+000
+1.20288000000E+008, -2.84698579708E+001, +0.00000000000E+000
+1.22162812500E+008, -2.88271796755E+001, +0.00000000000E+000
+1.24037625000E+008, -2.92233706939E+001, +0.00000000000E+000
+1.25912437500E+008, -2.96245632625E+001, +0.00000000000E+000
+1.27787250000E+008, -2.99744599462E+001, +0.00000000000E+000
+1.29662062500E+008, -3.03281645628E+001, +0.00000000000E+000
+1.31536875000E+008, -3.06069850258E+001, +0.00000000000E+000
+1.33411687500E+008, -3.08458477402E+001, +0.00000000000E+000
+1.35286500000E+008, -3.10467511861E+001, +0.00000000000E+000
+1.37161312500E+008, -3.11891958226E+001, +0.00000000000E+000
+1.39036125000E+008, -3.12910456392E+001, +0.00000000000E+000
+1.40910937500E+008, -3.13289845162E+001, +0.00000000000E+000
+1.42785750000E+008, -3.13250543751E+001, +0.00000000000E+000
+1.44660562500E+008, -3.12668046880E+001, +0.00000000000E+000
+1.46535375000E+008, -3.11807164041E+001, +0.00000000000E+000
+1.48410187500E+008, -3.10097013792E+001, +0.00000000000E+000
+1.50285000000E+008, -3.08187566858E+001, +0.00000000000E+000
+1.52159812500E+008, -3.05935020026E+001, +0.00000000000E+000
+1.54034625000E+008, -3.03139687011E+001, +0.00000000000E+000
+1.55909437500E+008, -3.00132571307E+001, +0.00000000000E+000
+1.57784250000E+008, -2.96609540361E+001, +0.00000000000E+000
+1.59659062500E+008, -2.92966252614E+001, +0.00000000000E+000
+1.61533875000E+008, -2.89175585304E+001, +0.00000000000E+000
+1.63408687500E+008, -2.85710671980E+001, +0.00000000000E+000
+1.65283500000E+008, -2.82026737726E+001, +0.00000000000E+000
+1.67158312500E+008, -2.78722267232E+001, +0.00000000000E+000
+1.69033125000E+008, -2.75304087656E+001, +0.00000000000E+000
+1.70907937500E+008, -2.72477458580E+001, +0.00000000000E+000
+1.72782750000E+008, -2.69837474737E+001, +0.00000000000E+000
+1.74657562500E+008, -2.68328025939E+001, +0.00000000000E+000
+1.76532375000E+008, -2.66755955533E+001, +0.00000000000E+000
+1.78407187500E+008, -2.66243895839E+001, +0.00000000000E+000
+1.80282000000E+008, -2.66041595740E+001, +0.00000000000E+000
+1.82156812500E+008, -2.66392685426E+001, +0.00000000000E+000
+1.84031625000E+008, -2.67218639188E+001, +0.00000000000E+000
+1.85906437500E+008, -2.68733184542E+001, +0.00000000000E+000
+1.87781250000E+008, -2.70733499918E+001, +0.00000000000E+000
+1.89656062500E+008, -2.73572318756E+001, +0.00000000000E+000
+1.91530875000E+008, -2.77227780664E+001, +0.00000000000E+000
+1.93405687500E+008, -2.82071694321E+001, +0.00000000000E+000
+1.95280500000E+008, -2.87874825072E+001, +0.00000000000E+000
+1.97155312500E+008, -2.95415912413E+001, +0.00000000000E+000
+1.99030125000E+008, -3.02627353511E+001, +0.00000000000E+000
+2.00904937500E+008, -3.07745017241E+001, +0.00000000000E+000
+2.02779750000E+008, -3.11672991853E+001, +0.00000000000E+000
+2.04654562500E+008, -3.14366515515E+001, +0.00000000000E+000
+2.06529375000E+008, -3.16330752259E+001, +0.00000000000E+000
+2.08404187500E+008, -3.17451273070E+001, +0.00000000000E+000
+2.10279000000E+008, -3.17725557057E+001, +0.00000000000E+000
+2.12153812500E+008, -3.17291214348E+001, +0.00000000000E+000
+2.14028625000E+008, -3.16240002406E+001, +0.00000000000E+000
+2.15903437500E+008, -3.14868706669E+001, +0.00000000000E+000
+2.17778250000E+008, -3.13123165321E+001, +0.00000000000E+000
+2.19653062500E+008, -3.11551122041E+001, +0.00000000000E+000
+2.21527875000E+008, -3.09616118134E+001, +0.00000000000E+000
+2.23402687500E+008, -3.08016404319E+001, +0.00000000000E+000
+2.25277500000E+008, -3.06498068015E+001, +0.00000000000E+000
+2.27152312500E+008, -3.05520548637E+001, +0.00000000000E+000
+2.29027125000E+008, -3.04776711033E+001, +0.00000000000E+000
+2.30901937500E+008, -3.04545236640E+001, +0.00000000000E+000
+2.32776750000E+008, -3.04485069649E+001, +0.00000000000E+000
+2.34651562500E+008, -3.05016432503E+001, +0.00000000000E+000
+2.36526375000E+008, -3.05213382163E+001, +0.00000000000E+000
+2.38401187500E+008, -3.05697019215E+001, +0.00000000000E+000
+2.40276000000E+008, -3.04868895267E+001, +0.00000000000E+000
+2.42150812500E+008, -3.03772401364E+001, +0.00000000000E+000
+2.44025625000E+008, -3.00349276822E+001, +0.00000000000E+000
+2.45900437500E+008, -2.97491817364E+001, +0.00000000000E+000
+2.47775250000E+008, -2.96588503765E+001, +0.00000000000E+000
+2.49650062500E+008, -2.96959867091E+001, +0.00000000000E+000
+2.51524875000E+008, -2.99002711680E+001, +0.00000000000E+000
+2.53399687500E+008, -3.02617283918E+001, +0.00000000000E+000
+2.55274500000E+008, -3.07417596397E+001, +0.00000000000E+000
+2.57149312500E+008, -3.13761341097E+001, +0.00000000000E+000
+2.59024125000E+008, -3.22181505114E+001, +0.00000000000E+000
+2.60898937500E+008, -3.27784725480E+001, +0.00000000000E+000
+2.62773750000E+008, -3.32072179414E+001, +0.00000000000E+000
+2.64648562500E+008, -3.35029977171E+001, +0.00000000000E+000
+2.66523375000E+008, -3.37068411243E+001, +0.00000000000E+000
+2.68398187500E+008, -3.38459322445E+001, +0.00000000000E+000
+2.70273000000E+008, -3.39043279434E+001, +0.00000000000E+000
+2.72147812500E+008, -3.38901087899E+001, +0.00000000000E+000
+2.74022625000E+008, -3.37796925180E+001, +0.00000000000E+000
+2.75897437500E+008, -3.36279147300E+001, +0.00000000000E+000
+2.77772250000E+008, -3.33990361283E+001, +0.00000000000E+000
+2.79647062500E+008, -3.31276590629E+001, +0.00000000000E+000
+2.81521875000E+008, -3.27651208521E+001, +0.00000000000E+000
+2.83396687500E+008, -3.23851414257E+001, +0.00000000000E+000
+2.85271500000E+008, -3.19360493147E+001, +0.00000000000E+000
+2.87146312500E+008, -3.15258258136E+001, +0.00000000000E+000
+2.89021125000E+008, -3.10835856382E+001, +0.00000000000E+000
+2.90895937500E+008, -3.07332502977E+001, +0.00000000000E+000
+2.92770750000E+008, -3.03725312257E+001, +0.00000000000E+000
+2.94645562500E+008, -3.00527134518E+001, +0.00000000000E+000
+2.96520375000E+008, -2.97300239069E+001, +0.00000000000E+000
+2.98395187500E+008, -2.93607518540E+001, +0.00000000000E+000
+3.00270000000E+008, -2.89163773393E+001, +0.00000000000E+000
+3.02144812500E+008, -2.84275502186E+001, +0.00000000000E+000
+3.04019625000E+008, -2.78264785988E+001, +0.00000000000E+000
+3.05894437500E+008, -2.70689925493E+001, +0.00000000000E+000
+3.07769250000E+008, -2.66061964485E+001, +0.00000000000E+000
+3.09644062500E+008, -2.62903846929E+001, +0.00000000000E+000
+3.11518875000E+008, -2.61098246272E+001, +0.00000000000E+000
+3.13393687500E+008, -2.60133138063E+001, +0.00000000000E+000
+3.15268500000E+008, -2.60301271784E+001, +0.00000000000E+000
+3.17143312500E+008, -2.60921299273E+001, +0.00000000000E+000
+3.19018125000E+008, -2.62457396116E+001, +0.00000000000E+000
+3.20892937500E+008, -2.64748737915E+001, +0.00000000000E+000
+3.22767750000E+008, -2.68071573933E+001, +0.00000000000E+000
+3.24642562500E+008, -2.71462880713E+001, +0.00000000000E+000
+3.26517375000E+008, -2.75551174510E+001, +0.00000000000E+000
+3.28392187500E+008, -2.79795551519E+001, +0.00000000000E+000
+3.30267000000E+008, -2.83932330645E+001, +0.00000000000E+000
+3.32141812500E+008, -2.87457853605E+001, +0.00000000000E+000
+3.34016625000E+008, -2.90535382986E+001, +0.00000000000E+000
+3.35891437500E+008, -2.92852886371E+001, +0.00000000000E+000
+3.37766250000E+008, -2.94162782396E+001, +0.00000000000E+000
+3.39641062500E+008, -2.95201656082E+001, +0.00000000000E+000
+3.41515875000E+008, -2.95632248290E+001, +0.00000000000E+000
+3.43390687500E+008, -2.95733311822E+001, +0.00000000000E+000
+3.45265500000E+008, -2.95358482414E+001, +0.00000000000E+000
+3.47140312500E+008, -2.94646449110E+001, +0.00000000000E+000
+3.49015125000E+008, -2.93566386002E+001, +0.00000000000E+000
+3.50889937500E+008, -2.92500417139E+001, +0.00000000000E+000
+3.52764750000E+008, -2.91121351103E+001, +0.00000000000E+000
+3.54639562500E+008, -2.89939283308E+001, +0.00000000000E+000
+3.56514375000E+008, -2.88455635781E+001, +0.00000000000E+000
+3.58389187500E+008, -2.86895995901E+001, +0.00000000000E+000
+3.60264000000E+008, -2.85128657012E+001, +0.00000000000E+000
+3.62138812500E+008, -2.82904648212E+001, +0.00000000000E+000
+3.64013625000E+008, -2.80575390190E+001, +0.00000000000E+000
+3.65888437500E+008, -2.77840693786E+001, +0.00000000000E+000
+3.67763250000E+008, -2.74703666219E+001, +0.00000000000E+000
+3.69638062500E+008, -2.70566371942E+001, +0.00000000000E+000
+3.71512875000E+008, -2.66713071626E+001, +0.00000000000E+000
+3.73387687500E+008, -2.62133424168E+001, +0.00000000000E+000
+3.75262500000E+008, -2.57839533688E+001, +0.00000000000E+000
+3.77137312500E+008, -2.53560883038E+001, +0.00000000000E+000
+3.79012125000E+008, -2.50186484980E+001, +0.00000000000E+000
+3.80886937500E+008, -2.47128127730E+001, +0.00000000000E+000
+3.82761750000E+008, -2.44989991590E+001, +0.00000000000E+000
+3.84636562500E+008, -2.43952652105E+001, +0.00000000000E+000
+3.86511375000E+008, -2.43366023740E+001, +0.00000000000E+000
+3.88386187500E+008, -2.43304588951E+001, +0.00000000000E+000
+3.90261000000E+008, -2.44080906696E+001, +0.00000000000E+000
+3.92135812500E+008, -2.45348438757E+001, +0.00000000000E+000
+3.94010625000E+008, -2.47162030983E+001, +0.00000000000E+000
+3.95885437500E+008, -2.49398610081E+001, +0.00000000000E+000
+3.97760250000E+008, -2.52100819217E+001, +0.00000000000E+000
+3.99635062500E+008, -2.55140742972E+001, +0.00000000000E+000
+4.01509875000E+008, -2.58205674441E+001, +0.00000000000E+000
+4.03384687500E+008, -2.61112677387E+001, +0.00000000000E+000
+4.05259500000E+008, -2.64939955464E+001, +0.00000000000E+000
+4.07134312500E+008, -2.68599829519E+001, +0.00000000000E+000
+4.09009125000E+008, -2.72852608050E+001, +0.00000000000E+000
+4.10883937500E+008, -2.77277487848E+001, +0.00000000000E+000
+4.12758750000E+008, -2.81978914762E+001, +0.00000000000E+000
+4.14633562500E+008, -2.87151327231E+001, +0.00000000000E+000
+4.16508375000E+008, -2.93051459404E+001, +0.00000000000E+000
+4.18383187500E+008, -2.98760104690E+001, +0.00000000000E+000
+4.20258000000E+008, -3.06059587593E+001, +0.00000000000E+000
+4.22132812500E+008, -3.14104391220E+001, +0.00000000000E+000
+4.24007625000E+008, -3.22449566776E+001, +0.00000000000E+000
+4.25882437500E+008, -3.30129527313E+001, +0.00000000000E+000
+4.27757250000E+008, -3.38075629046E+001, +0.00000000000E+000
+4.29632062500E+008, -3.46462807677E+001, +0.00000000000E+000
+4.31506875000E+008, -3.53185960358E+001, +0.00000000000E+000
+4.33381687500E+008, -3.63165194266E+001, +0.00000000000E+000
+4.35256500000E+008, -3.70062686955E+001, +0.00000000000E+000
+4.37131312500E+008, -3.77624709332E+001, +0.00000000000E+000
+4.39006125000E+008, -3.82660570820E+001, +0.00000000000E+000
+4.40880937500E+008, -3.87069979919E+001, +0.00000000000E+000
+4.42755750000E+008, -3.90572997287E+001, +0.00000000000E+000
+4.44630562500E+008, -3.94183132831E+001, +0.00000000000E+000
+4.46505375000E+008, -3.96446207638E+001, +0.00000000000E+000
+4.48380187500E+008, -3.97896084987E+001, +0.00000000000E+000
+4.50255000000E+008, -3.99824648173E+001, +0.00000000000E+000
+4.52129812500E+008, -4.00574137403E+001, +0.00000000000E+000
+4.54004625000E+008, -4.01406564811E+001, +0.00000000000E+000
+4.55879437500E+008, -4.01755535174E+001, +0.00000000000E+000
+4.57754250000E+008, -4.02132904170E+001, +0.00000000000E+000
+4.59629062500E+008, -4.02862936583E+001, +0.00000000000E+000
+4.61503875000E+008, -4.04264161768E+001, +0.00000000000E+000
+4.63378687500E+008, -4.05124192609E+001, +0.00000000000E+000
+4.65253500000E+008, -4.07284726685E+001, +0.00000000000E+000
+4.67128312500E+008, -4.06868441130E+001, +0.00000000000E+000
+4.69003125000E+008, -4.04948076414E+001, +0.00000000000E+000
+4.70877937500E+008, -4.01622778904E+001, +0.00000000000E+000
+4.72752750000E+008, -3.97167956781E+001, +0.00000000000E+000
+4.74627562500E+008, -3.91774692912E+001, +0.00000000000E+000
+4.76502375000E+008, -3.85093164262E+001, +0.00000000000E+000
+4.78377187500E+008, -3.79118510534E+001, +0.00000000000E+000
+4.80252000000E+008, -3.68987570156E+001, +0.00000000000E+000
+4.82126812500E+008, -3.61392153493E+001, +0.00000000000E+000
+4.84001625000E+008, -3.52152382740E+001, +0.00000000000E+000
+4.85876437500E+008, -3.45153163522E+001, +0.00000000000E+000
+4.87751250000E+008, -3.38025757381E+001, +0.00000000000E+000
+4.89626062500E+008, -3.31494457572E+001, +0.00000000000E+000
+4.91500875000E+008, -3.24361572895E+001, +0.00000000000E+000
+4.93375687500E+008, -3.18290121746E+001, +0.00000000000E+000
+4.95250500000E+008, -3.12846514731E+001, +0.00000000000E+000
+4.97125312500E+008, -3.07118021524E+001, +0.00000000000E+000
+4.99000125000E+008, -3.01872277678E+001, +0.00000000000E+000
+5.00874937500E+008, -2.96730594334E+001, +0.00000000000E+000
+5.02749750000E+008, -2.91438650536E+001, +0.00000000000E+000
+5.04624562500E+008, -2.86160617624E+001, +0.00000000000E+000
+5.06499375000E+008, -2.80096252869E+001, +0.00000000000E+000
+5.08374187500E+008, -2.72863248996E+001, +0.00000000000E+000
+5.10249000000E+008, -2.65458965685E+001, +0.00000000000E+000
+5.12123812500E+008, -2.56588282089E+001, +0.00000000000E+000
+5.13998625000E+008, -2.48659949340E+001, +0.00000000000E+000
+5.15873437500E+008, -2.41140658006E+001, +0.00000000000E+000
+5.17748250000E+008, -2.34728339617E+001, +0.00000000000E+000
+5.19623062500E+008, -2.29669098562E+001, +0.00000000000E+000
+5.21497875000E+008, -2.25294089856E+001, +0.00000000000E+000
+5.23372687500E+008, -2.21455364749E+001, +0.00000000000E+000
+5.25247500000E+008, -2.18390845784E+001, +0.00000000000E+000
+5.27122312500E+008, -2.16047266171E+001, +0.00000000000E+000
+5.28997125000E+008, -2.14248448133E+001, +0.00000000000E+000
+5.30871937500E+008, -2.13085124847E+001, +0.00000000000E+000
+5.32746750000E+008, -2.12299437776E+001, +0.00000000000E+000
+5.34621562500E+008, -2.12184879743E+001, +0.00000000000E+000
+5.36496375000E+008, -2.12587303976E+001, +0.00000000000E+000
+5.38371187500E+008, -2.13240001295E+001, +0.00000000000E+000
+5.40246000000E+008, -2.14521616383E+001, +0.00000000000E+000
+5.42120812500E+008, -2.15745857481E+001, +0.00000000000E+000
+5.43995625000E+008, -2.17245851565E+001, +0.00000000000E+000
+5.45870437500E+008, -2.18593664063E+001, +0.00000000000E+000
+5.47745250000E+008, -2.20266474567E+001, +0.00000000000E+000
+5.49620062500E+008, -2.21895784610E+001, +0.00000000000E+000
+5.51494875000E+008, -2.23731593400E+001, +0.00000000000E+000
+5.53369687500E+008, -2.25804080816E+001, +0.00000000000E+000
+5.55244500000E+008, -2.28306761681E+001, +0.00000000000E+000
+5.57119312500E+008, -2.31317518091E+001, +0.00000000000E+000
+5.58994125000E+008, -2.35174113547E+001, +0.00000000000E+000
+5.60868937500E+008, -2.39680776977E+001, +0.00000000000E+000
+5.62743750000E+008, -2.44524208063E+001, +0.00000000000E+000
+5.64618562500E+008, -2.49429094956E+001, +0.00000000000E+000
+5.66493375000E+008, -2.53729402036E+001, +0.00000000000E+000
+5.68368187500E+008, -2.56539100237E+001, +0.00000000000E+000
+5.70243000000E+008, -2.58698202814E+001, +0.00000000000E+000
+5.72117812500E+008, -2.59762530104E+001, +0.00000000000E+000
+5.73992625000E+008, -2.60181764346E+001, +0.00000000000E+000
+5.75867437500E+008, -2.59832922454E+001, +0.00000000000E+000
+5.77742250000E+008, -2.58784314902E+001, +0.00000000000E+000
+5.79617062500E+008, -2.57027041306E+001, +0.00000000000E+000
+5.81491875000E+008, -2.54603561626E+001, +0.00000000000E+000
+5.83366687500E+008, -2.51538159165E+001, +0.00000000000E+000
+5.85241500000E+008, -2.48223283472E+001, +0.00000000000E+000
+5.87116312500E+008, -2.44269161137E+001, +0.00000000000E+000
+5.88991125000E+008, -2.40338963184E+001, +0.00000000000E+000
+5.90865937500E+008, -2.36324165820E+001, +0.00000000000E+000
