"# Channel 1"
"# Trace 1"
Frequency, Formatted Data, Formatted Data
+3.00000000000E+005, -2.81287552562E+001, +0.00000000000E+000
+2.17481250000E+006, -2.81867162687E+001, +0.00000000000E+000
+4.04962500000E+006, -2.89174965031E+001, +0.00000000000E+000
+5.92443750000E+006, -2.99366336021E+001, +0.00000000000E+000
+7.79925000000E+006, -3.11946849050E+001, +0.00000000000E+000
+9.67406250000E+006, -3.26263783694E+001, +0.00000000000E+000
+1.15488750000E+007, -3.36151268248E+001, +0.00000000000E+000
+1.34236875000E+007, -3.39732547673E+001, +0.00000000000E+000
+1.52985000000E+007, -3.39466743692E+001, +0.00000000000E+000
+1.71733125000E+007, -3.37844019869E+001, +0.00000000000E+000
+1.90481250000E+007, -3.35977811656E+001, +0.00000000000E+000
+2.09229375000E+007, -3.34228187949E+001, +0.00000000000E+000
+2.27977500000E+007, -3.33148590899E+001, +0.00000000000E+000
+2.46725625000E+007, -3.35088219208E+001, +0.00000000000E+000
+2.65473750000E+007, -3.37099423209E+001, +0.00000000000E+000
+2.84221875000E+007, -3.39559030774E+001, +0.00000000000E+000
+3.02970000000E+007, -3.41780991287E+001, +0.00000000000E+000
+3.21718125000E+007, -3.44457556060E+001, +0.00000000000E+000
+3.40466250000E+007, -3.46491507806E+001, +0.00000000000E+000
+3.59214375000E+007, -3.49011984396E+001, +0.00000000000E+000
+3.77962500000E+007, -3.51259104756E+001, +0.00000000000E+000
+3.96710625000E+007, -3.54086084439E+001, +0.00000000000E+000
+4.15458750000E+007, -3.56709366955E+001, +0.00000000000E+000
+4.34206875000E+007, -3.58829734700E+001, +0.00000000000E+000
+4.52955000000E+007, -3.61104590002E+001, +0.00000000000E+000
+4.71703125000E+007, -3.63423190154E+001, +0.00000000000E+000
+4.90451250000E+007, -3.65787485717E+001, +0.00000000000E+000
+5.09199375000E+007, -3.68521661252E+001, +0.00000000000E+000
+5.27947500000E+007, -3.70757689144E+001, +0.00000000000E+000
+5.46695625000E+007, -3.73002501774E+001, +0.00000000000E+000
+5.65443750000E+007, -3.74853556677E+001, +0.00000000000E+000
+5.84191875000E+007, -3.76278894033E+001, +0.00000000000E+000
+6.02940000000E+007, -3.77319926332E+001, +0.00000000000E+000
+6.21688125000E+007, -3.77767156965E+001, +0.00000000000E+000
+6.40436250000E+007, -3.77820877044E+001, +0.00000000000E+000
+6.59184375000E+007, -3.77454034614E+001, +0.00000000000E+000
+6.77932500000E+007, -3.76411575044E+001, +0.00000000000E+000
+6.96680625000E+007, -3.74651192005E+001, +0.00000000000E+000
+7.15428750000E+007, -3.72313579161E+001, +0.00000000000E+000
+7.34176875000E+007, -3.69497193509E+001, +0.00000000000E+000
+7.52925000000E+007, -3.65801256646E+001, +0.00000000000E+000
+7.71673125000E+007, -3.61530362196E+001, +0.00000000000E+000
+7.90421250000E+007, -3.56438778566E+001, +0.00000000000E+000
+8.09169375000E+007, -3.51286022939E+001, +0.00000000000E+000
+8.27917500000E+007, -3.45312299938E+001, +0.00000000000E+000
+8.46665625000E+007, -3.38891023843E+001, +0.00000000000E+000
+8.65413750000E+007, -3.31496178240E+001, +0.00000000000E+000
+8.84161875000E+007, -3.23817524004E+001, +0.00000000000E+000
+9.02910000000E+007, -3.16113230516E+001, +0.00000000000E+000
+9.21658125000E+007, -3.08769630905E+001, +0.00000000000E+000
+9.40406250000E+007, -3.02061781157E+001, +0.00000000000E+000
+9.59154375000E+007, -2.96511433370E+001, +0.00000000000E+000
+9.77902500000E+007, -2.91583875509E+001, +0.00000000000E+000
+9.96650625000E+007, -2.88805480625E+001, +0.00000000000E+000
+1.01539875000E+008, -2.87065132158E+001, +0.00000000000E+000
+1.03414687500E+008, -2.87697523511E+001, +0.00000000000E+000
+1.05289500000E+008, -2.90245660465E+001, +0.00000000000E+000
+1.07164312500E+008, -2.95363870366E+001, +0.00000000000E+000
+1.09039125000E+008, -3.00114738930E+001, +0.00000000000E+000
+1.10913937500E+008, -3.03539388425E+001, +0.00000000000E+000
+1.12788750000E+008, -3.05865568436E+001, +0.00000000000E+000
+1.14663562500E+008, -3.07897728646E+001, +0.00000000000E+000
+1.16538375000E+008, -3.10035217413E+001, +0.00000000000E+000
+1.18413187500E+008, -3.11885780718E+001, +0.00000000000E+000
+1.20288000000E+008, -3.13919429167E+001, +0.00000000000E+000
+1.22162812500E+008, -3.15672341946E+001, +0.00000000000E+000
+1.24037625000E+008, -3.17342588921E+001, +0.00000000000E+000
+1.25912437500E+008, -3.18581549172E+001, +0.00000000000E+000
+1.27787250000E+008, -3.19677994091E+001, +0.00000000000E+000
+1.29662062500E+008, -3.20297478693E+001, +0.00000000000E+000
+1.31536875000E+008, -3.20548317638E+001, +0.00000000000E+000
+1.33411687500E+008, -3.20328034208E+001, +0.00000000000E+000
+1.35286500000E+008, -3.19571626412E+001, +0.00000000000E+000
+1.37161312500E+008, -3.18286636562E+001, +0.00000000000E+000
+1.39036125000E+008, -3.16616432144E+001, +0.00000000000E+000
+1.40910937500E+008, -3.14266340036E+001, +0.00000000000E+000
+1.42785750000E+008, -3.11228306587E+001, +0.00000000000E+000
+1.44660562500E+008, -3.07566754991E+001, +0.00000000000E+000
+1.46535375000E+008, -3.02789046301E+001, +0.00000000000E+000
+1.48410187500E+008, -2.97254303522E+001, +0.00000000000E+000
+1.50285000000E+008, -2.89958809309E+001, +0.00000000000E+000
+1.52159812500E+008, -2.81219871226E+001, +0.00000000000E+000
+1.54034625000E+008, -2.70422489497E+001, +0.00000000000E+000
+1.55909437500E+008, -2.60643438079E+001, +0.00000000000E+000
+1.57784250000E+008, -2.52507045241E+001, +0.00000000000E+000
+1.59659062500E+008, -2.46134813382E+001, +0.00000000000E+000
+1.61533875000E+008, -2.40579999773E+001, +0.00000000000E+000
+1.63408687500E+008, -2.35510413916E+001, +0.00000000000E+000
+1.65283500000E+008, -2.31109108852E+001, +0.00000000000E+000
+1.67158312500E+008, -2.27049845047E+001, +0.00000000000E+000
+1.69033125000E+008, -2.23600406950E+001, +0.00000000000E+000
+1.70907937500E+008, -2.20790968788E+001, +0.00000000000E+000
+1.72782750000E+008, -2.18546779767E+001, +0.00000000000E+000
+1.74657562500E+008, -2.16830063386E+001, +0.00000000000E+000
+1.76532375000E+008, -2.15534292120E+001, +0.00000000000E+000
+1.78407187500E+008, -2.14837200864E+001, +0.00000000000E+000
+1.80282000000E+008, -2.14616876014E+001, +0.00000000000E+000
+1.82156812500E+008, -2.14964858191E+001, +0.00000000000E+000
+1.84031625000E+008, -2.16057296142E+001, +0.00000000000E+000
+1.85906437500E+008, -2.17601522370E+001, +0.00000000000E+000
+1.87781250000E+008, -2.19907814367E+001, +0.00000000000E+000
+1.89656062500E+008, -2.23028379340E+001, +0.00000000000E+000
+1.91530875000E+008, -2.26883336011E+001, +0.00000000000E+000
+1.93405687500E+008, -2.31857940280E+001, +0.00000000000E+000
+1.95280500000E+008, -2.38472466096E+001, +0.00000000000E+000
+1.97155312500E+008, -2.48544940584E+001, +0.00000000000E+000
+1.99030125000E+008, -2.59068916215E+001, +0.00000000000E+000
+2.00904937500E+008, -2.67057576480E+001, +0.00000000000E+000
+2.02779750000E+008, -2.72767348015E+001, +0.00000000000E+000
+2.04654562500E+008, -2.77686804905E+001, +0.00000000000E+000
+2.06529375000E+008, -2.81367178523E+001, +0.00000000000E+000
+2.08404187500E+008, -2.84802636406E+001, +0.00000000000E+000
+2.10279000000E+008, -2.87472193346E+001, +0.00000000000E+000
+2.12153812500E+008, -2.89781219599E+001, +0.00000000000E+000
+2.14028625000E+008, -2.91544448193E+001, +0.00000000000E+000
+2.15903437500E+008, -2.93298244144E+001, +0.00000000000E+000
+2.17778250000E+008, -2.94615098699E+001, +0.00000000000E+000
+2.19653062500E+008, -2.95692143737E+001, +0.00000000000E+000
+2.21527875000E+008, -2.96562446736E+001, +0.00000000000E+000
+2.23402687500E+008, -2.97239282963E+001, +0.00000000000E+000
+2.25277500000E+008, -2.97776823654E+001, +0.00000000000E+000
+2.27152312500E+008, -2.98177370666E+001, +0.00000000000E+000
+2.29027125000E+008, -2.98318997621E+001, +0.00000000000E+000
+2.30901937500E+008, -2.98201254057E+001, +0.00000000000E+000
+2.32776750000E+008, -2.97814622461E+001, +0.00000000000E+000
+2.34651562500E+008, -2.97002203781E+001, +0.00000000000E+000
+2.36526375000E+008, -2.95682749051E+001, +0.00000000000E+000
+2.38401187500E+008, -2.93718196293E+001, +0.00000000000E+000
+2.40276000000E+008, -2.90993998863E+001, +0.00000000000E+000
+2.42150812500E+008, -2.86724994016E+001, +0.00000000000E+000
+2.44025625000E+008, -2.79479175143E+001, +0.00000000000E+000
+2.45900437500E+008, -2.71638041591E+001, +0.00000000000E+000
+2.47775250000E+008, -2.66608501826E+001, +0.00000000000E+000
+2.49650062500E+008, -2.63769358976E+001, +0.00000000000E+000
+2.51524875000E+008, -2.61904072857E+001, +0.00000000000E+000
+2.53399687500E+008, -2.61165798878E+001, +0.00000000000E+000
+2.55274500000E+008, -2.60543910087E+001, +0.00000000000E+000
+2.57149312500E+008, -2.60645209452E+001, +0.00000000000E+000
+2.59024125000E+008, -2.60783017773E+001, +0.00000000000E+000
+2.60898937500E+008, -2.61513719704E+001, +0.00000000000E+000
+2.62773750000E+008, -2.61845124051E+001, +0.00000000000E+000
+2.64648562500E+008, -2.62524839953E+001, +0.00000000000E+000
+2.66523375000E+008, -2.62967966875E+001, +0.00000000000E+000
+2.68398187500E+008, -2.63272225402E+001, +0.00000000000E+000
+2.70273000000E+008, -2.63410528654E+001, +0.00000000000E+000
+2.72147812500E+008, -2.63588292878E+001, +0.00000000000E+000
+2.74022625000E+008, -2.63447611579E+001, +0.00000000000E+000
+2.75897437500E+008, -2.63392075640E+001, +0.00000000000E+000
+2.77772250000E+008, -2.63207382340E+001, +0.00000000000E+000
+2.79647062500E+008, -2.62949860283E+001, +0.00000000000E+000
+2.81521875000E+008, -2.62763955058E+001, +0.00000000000E+000
+2.83396687500E+008, -2.62614573735E+001, +0.00000000000E+000
+2.85271500000E+008, -2.62605336561E+001, +0.00000000000E+000
+2.87146312500E+008, -2.62460959850E+001, +0.00000000000E+000
+2.89021125000E+008, -2.62747828903E+001, +0.00000000000E+000
+2.90895937500E+008, -2.62839669631E+001, +0.00000000000E+000
+2.92770750000E+008, -2.63604675891E+001, +0.00000000000E+000
+2.94645562500E+008, -2.64263485510E+001, +0.00000000000E+000
+2.96520375000E+008, -2.65510504215E+001, +0.00000000000E+000
+2.98395187500E+008, -2.66996140691E+001, +0.00000000000E+000
+3.00270000000E+008, -2.68868901650E+001, +0.00000000000E+000
+3.02144812500E+008, -2.71084683844E+001, +0.00000000000E+000
+3.04019625000E+008, -2.73925506842E+001, +0.00000000000E+000
+3.05894437500E+008, -2.77485631769E+001, +0.00000000000E+000
+3.07769250000E+008, -2.81520735294E+001, +0.00000000000E+000
+3.09644062500E+008, -2.86248750061E+001, +0.00000000000E+000
+3.11518875000E+008, -2.91029939814E+001, +0.00000000000E+000
+3.13393687500E+008, -2.96322359861E+001, +0.00000000000E+000
+3.15268500000E+008, -3.01199135910E+001, +0.00000000000E+000
+3.17143312500E+008, -3.06066286859E+001, +0.00000000000E+000
+3.19018125000E+008, -3.09778260922E+001, +0.00000000000E+000
+3.20892937500E+008, -3.13400144181E+001, +0.00000000000E+000
+3.22767750000E+008, -3.15943883511E+001, +0.00000000000E+000
+3.24642562500E+008, -3.18369120143E+001, +0.00000000000E+000
+3.26517375000E+008, -3.20091135393E+001, +0.00000000000E+000
+3.28392187500E+008, -3.21306492402E+001, +0.00000000000E+000
+3.30267000000E+008, -3.21945883907E+001, +0.00000000000E+000
+3.32141812500E+008, -3.22296985113E+001, +0.00000000000E+000
+3.34016625000E+008, -3.22310642154E+001, +0.00000000000E+000
+3.35891437500E+008, -3.21686608267E+001, +0.00000000000E+000
+3.37766250000E+008, -3.20695107658E+001, +0.00000000000E+000
+3.39641062500E+008, -3.19119607624E+001, +0.00000000000E+000
+3.41515875000E+008, -3.17380180866E+001, +0.00000000000E+000
+3.43390687500E+008, -3.15232199028E+001, +0.00000000000E+000
+3.45265500000E+008, -3.12841711903E+001, +0.00000000000E+000
+3.47140312500E+008, -3.10141717755E+001, +0.00000000000E+000
+3.49015125000E+008, -3.07562851982E+001, +0.00000000000E+000
+3.50889937500E+008, -3.04335171281E+001, +0.00000000000E+000
+3.52764750000E+008, -3.01072870253E+001, +0.00000000000E+000
+3.54639562500E+008, -2.97473232880E+001, +0.00000000000E+000
+3.56514375000E+008, -2.94081924458E+001, +0.00000000000E+000
+3.58389187500E+008, -2.90943477049E+001, +0.00000000000E+000
+3.60264000000E+008, -2.88247991464E+001, +0.00000000000E+000
+3.62138812500E+008, -2.86375174915E+001, +0.00000000000E+000
+3.64013625000E+008, -2.85042686787E+001, +0.00000000000E+000
+3.65888437500E+008, -2.85366099212E+001, +0.00000000000E+000
+3.67763250000E+008, -2.86220850053E+001, +0.00000000000E+000
+3.69638062500E+008, -2.87818991294E+001, +0.00000000000E+000
+3.71512875000E+008, -2.89663692242E+001, +0.00000000000E+000
+3.73387687500E+008, -2.91468654891E+001, +0.00000000000E+000
+3.75262500000E+008, -2.93395904581E+001, +0.00000000000E+000
+3.77137312500E+008, -2.95672738885E+001, +0.00000000000E+000
+3.79012125000E+008, -2.97957433314E+001, +0.00000000000E+000
+3.80886937500E+008, -3.00307038312E+001, +0.00000000000E+000
+3.82761750000E+008, -3.02667120123E+001, +0.00000000000E+000
+3.84636562500E+008, -3.05179581695E+001, +0.00000000000E+000
+3.86511375000E+008, -3.07656529280E+001, +0.00000000000E+000
+3.88386187500E+008, -3.10441122967E+001, +0.00000000000E+000
+3.90261000000E+008, -3.13191852853E+001, +0.00000000000E+000
+3.92135812500E+008, -3.16369169967E+001, +0.00000000000E+000
+3.94010625000E+008, -3.19274122992E+001, +0.00000000000E+000
+3.95885437500E+008, -3.22631658472E+001, +0.00000000000E+000
+3.97760250000E+008, -3.26083179887E+001, +0.00000000000E+000
+3.99635062500E+008, -3.30194947402E+001, +0.00000000000E+000
+4.01509875000E+008, -3.34517846266E+001, +0.00000000000E+000
+4.03384687500E+008, -3.39691389599E+001, +0.00000000000E+000
+4.05259500000E+008, -3.43628843000E+001, +0.00000000000E+000
+4.07134312500E+008, -3.47461095226E+001, +0.00000000000E+000
+4.09009125000E+008, -3.48627252663E+001, +0.00000000000E+000
+4.10883937500E+008, -3.49336684578E+001, +0.00000000000E+000
+4.12758750000E+008, -3.48495623288E+001, +0.00000000000E+000
+4.14633562500E+008, -3.46942417360E+001, +0.00000000000E+000
+4.16508375000E+008, -3.45058184643E+001, +0.00000000000E+000
+4.18383187500E+008, -3.42690617824E+001, +0.00000000000E+000
+4.20258000000E+008, -3.40896376211E+001, +0.00000000000E+000
+4.22132812500E+008, -3.39138332657E+001, +0.00000000000E+000
+4.24007625000E+008, -3.37168241394E+001, +0.00000000000E+000
+4.25882437500E+008, -3.35649772904E+001, +0.00000000000E+000
+4.27757250000E+008, -3.34166316583E+001, +0.00000000000E+000
+4.29632062500E+008, -3.33140688240E+001, +0.00000000000E+000
+4.31506875000E+008, -3.32186833789E+001, +0.00000000000E+000
+4.33381687500E+008, -3.31857465273E+001, +0.00000000000E+000
+4.35256500000E+008, -3.31510399803E+001, +0.00000000000E+000
+4.37131312500E+008, -3.32077190360E+001, +0.00000000000E+000
+4.39006125000E+008, -3.32354569746E+001, +0.00000000000E+000
+4.40880937500E+008, -3.34429279511E+001, +0.00000000000E+000
+4.42755750000E+008, -3.36960304235E+001, +0.00000000000E+000
+4.44630562500E+008, -3.38822044202E+001, +0.00000000000E+000
+4.46505375000E+008, -3.39514425310E+001, +0.00000000000E+000
+4.48380187500E+008, -3.38748587411E+001, +0.00000000000E+000
+4.50255000000E+008, -3.35692214903E+001, +0.00000000000E+000
+4.52129812500E+008, -3.33122775962E+001, +0.00000000000E+000
+4.54004625000E+008, -3.29659306613E+001, +0.00000000000E+000
+4.55879437500E+008, -3.28258655398E+001, +0.00000000000E+000
+4.57754250000E+008, -3.27142545713E+001, +0.00000000000E+000
+4.59629062500E+008, -3.26918215772E+001, +0.00000000000E+000
+4.61503875000E+008, -3.27886588659E+001, +0.00000000000E+000
+4.63378687500E+008, -3.30115386287E+001, +0.00000000000E+000
+4.65253500000E+008, -3.32907805241E+001, +0.00000000000E+000
+4.67128312500E+008, -3.37351487607E+001, +0.00000000000E+000
+4.69003125000E+008, -3.41882543908E+001, +0.00000000000E+000
+4.70877937500E+008, -3.45189932843E+001, +0.00000000000E+000
+4.72752750000E+008, -3.46683262992E+001, +0.00000000000E+000
+4.74627562500E+008, -3.47288314088E+001, +0.00000000000E+000
+4.76502375000E+008, -3.46857771769E+001, +0.00000000000E+000
+4.78377187500E+008, -3.45767423828E+001, +0.00000000000E+000
+4.80252000000E+008, -3.43555973215E+001, +0.00000000000E+000
+4.82126812500E+008, -3.40680311729E+001, +0.00000000000E+000
+4.84001625000E+008, -3.36361623474E+001, +0.00000000000E+000
+4.85876437500E+008, -3.31483556833E+001, +0.00000000000E+000
+4.87751250000E+008, -3.24871131642E+001, +0.00000000000E+000
+4.89626062500E+008, -3.16678011904E+001, +0.00000000000E+000
+4.91500875000E+008, -3.09003555632E+001, +0.00000000000E+000
+4.93375687500E+008, -3.01257167879E+001, +0.00000000000E+000
+4.95250500000E+008, -2.94479620575E+001, +0.00000000000E+000
+4.97125312500E+008, -2.88542905395E+001, +0.00000000000E+000
+4.99000125000E+008, -2.82994222614E+001, +0.00000000000E+000
+5.00874937500E+008, -2.77626384689E+001, +0.00000000000E+000
+5.02749750000E+008, -2.72600023388E+001, +0.00000000000E+000
+5.04624562500E+008, -2.67303450691E+001, +0.00000000000E+000
+5.06499375000E+008, -2.62082724902E+001, +0.00000000000E+000
+5.08374187500E+008, -2.56056073974E+001, +0.00000000000E+000
+5.10249000000E+008, -2.49275220384E+001, +0.00000000000E+000
+5.12123812500E+008, -2.42190702040E+001, +0.00000000000E+000
+5.13998625000E+008, -2.33588993667E+001, +0.00000000000E+000
+5.15873437500E+008, -2.24992888375E+001, +0.00000000000E+000
+5.17748250000E+008, -2.17949795702E+001, +0.00000000000E+000
+5.19623062500E+008, -2.12270407110E+001, +0.00000000000E+000
+5.21497875000E+008, -2.07765720014E+001, +0.00000000000E+000
+5.23372687500E+008, -2.03951416584E+001, +0.00000000000E+000
+5.25247500000E+008, -2.00869849191E+001, +0.00000000000E+000
+5.27122312500E+008, -1.98587787539E+001, +0.00000000000E+000
+5.28997125000E+008, -1.96850906212E+001, +0.00000000000E+000
+5.30871937500E+008, -1.95874246676E+001, +0.00000000000E+000
+5.32746750000E+008, -1.95437915476E+001, +0.00000000000E+000
+5.34621562500E+008, -1.95423005774E+001, +0.00000000000E+000
+5.36496375000E+008, -1.96254747668E+001, +0.00000000000E+000
+5.38371187500E+008, -1.97475148956E+001, +0.00000000000E+000
+5.40246000000E+008, -1.99165773311E+001, +0.00000000000E+000
+5.42120812500E+008, -2.01438929148E+001, +0.00000000000E+000
+5.43995625000E+008, -2.04004626993E+001, +0.00000000000E+000
+5.45870437500E+008, -2.06822440210E+001, +0.00000000000E+000
+5.47745250000E+008, -2.09847690212E+001, +0.00000000000E+000
+5.49620062500E+008, -2.12775119591E+001, +0.00000000000E+000
+5.51494875000E+008, -2.15907322063E+001, +0.00000000000E+000
+5.53369687500E+008, -2.18601453992E+001, +0.00000000000E+000
+5.55244500000E+008, -2.21034643137E+001, +0.00000000000E+000
+5.57119312500E+008, -2.23633132300E+001, +0.00000000000E+000
+5.58994125000E+008, -2.26146370575E+001, +0.00000000000E+000
+5.60868937500E+008, -2.28558222201E+001, +0.00000000000E+000
+5.62743750000E+008, -2.31035311866E+001, +0.00000000000E+000
+5.64618562500E+008, -2.33425533754E+001, +0.00000000000E+000
+5.66493375000E+008, -2.35993178352E+001, +0.00000000000E+000
+5.68368187500E+008, -2.38370314192E+001, +0.00000000000E+000
+5.70243000000E+008, -2.40498770839E+001, +0.00000000000E+000
+5.72117812500E+008, -2.42342901341E+001, +0.00000000000E+000
+5.73992625000E+008, -2.43927841997E+001, +0.00000000000E+000
+5.75867437500E+008, -2.45119315717E+001, +0.00000000000E+000
+5.77742250000E+008, -2.45910488089E+001, +0.00000000000E+000
+5.79617062500E+008, -2.46458911597E+001, +0.00000000000E+000
+5.81491875000E+008, -2.46472316307E+001, +0.00000000000E+000
+5.83366687500E+008, -2.46072845744E+001, +0.00000000000E+000
+5.85241500000E+008, -2.45103385735E+001, +0.00000000000E+000
+5.87116312500E+008, -2.43926532140E+001, +0.00000000000E+000
+5.88991125000E+008, -2.42046332203E+001, +0.00000000000E+000
+5.90865937500E+008, -2.40301644481E+001, +0.00000000000E+000
