"# Channel 2"
"# Trace 1"
Frequency, Formatted Data, Formatted Data
+3.00000000000E+005, +1.54693982905E+001, +0.00000000000E+000
+2.17481250000E+006, +4.77894513482E+000, +0.00000000000E+000
+4.04962500000E+006, +1.75444244583E+000, +0.00000000000E+000
+5.92443750000E+006, -6.43728632422E-001, +0.00000000000E+000
+7.79925000000E+006, -2.81247671627E+000, +0.00000000000E+000
+9.67406250000E+006, -5.24712392160E+000, +0.00000000000E+000
+1.15488750000E+007, -7.73772529991E+000, +0.00000000000E+000
+1.34236875000E+007, -1.01093485974E+001, +0.00000000000E+000
+1.52985000000E+007, -1.24766808202E+001, +0.00000000000E+000
+1.71733125000E+007, -1.47556360009E+001, +0.00000000000E+000
+1.90481250000E+007, -1.70025703703E+001, +0.00000000000E+000
+2.09229375000E+007, -1.92114591983E+001, +0.00000000000E+000
+2.27977500000E+007, -2.13529936455E+001, +0.00000000000E+000
+2.46725625000E+007, -2.38930102461E+001, +0.00000000000E+000
+2.65473750000E+007, -2.60365127446E+001, +0.00000000000E+000
+2.84221875000E+007, -2.78098719436E+001, +0.00000000000E+000
+3.02970000000E+007, -2.97805301856E+001, +0.00000000000E+000
+3.21718125000E+007, -3.15948148459E+001, +0.00000000000E+000
+3.40466250000E+007, -3.33148304258E+001, +0.00000000000E+000
+3.59214375000E+007, -3.48106673656E+001, +0.00000000000E+000
+3.77962500000E+007, -3.60492877911E+001, +0.00000000000E+000
+3.96710625000E+007, -3.68837182744E+001, +0.00000000000E+000
+4.15458750000E+007, -3.71667516507E+001, +0.00000000000E+000
+4.34206875000E+007, -3.67469425019E+001, +0.00000000000E+000
+4.52955000000E+007, -3.56505187698E+001, +0.00000000000E+000
+4.71703125000E+007, -3.39206281751E+001, +0.00000000000E+000
+4.90451250000E+007, -3.17972243079E+001, +0.00000000000E+000
+5.09199375000E+007, -2.92597888169E+001, +0.00000000000E+000
+5.27947500000E+007, -2.65318889689E+001, +0.00000000000E+000
+5.46695625000E+007, -2.35986803511E+001, +0.00000000000E+000
+5.65443750000E+007, -2.05666043036E+001, +0.00000000000E+000
+5.84191875000E+007, -1.74319005969E+001, +0.00000000000E+000
+6.02940000000E+007, -1.42318472604E+001, +0.00000000000E+000
+6.21688125000E+007, -1.09663651651E+001, +0.00000000000E+000
+6.40436250000E+007, -7.66952608475E+000, +0.00000000000E+000
+6.59184375000E+007, -4.32075100556E+000, +0.00000000000E+000
+6.77932500000E+007, -9.85500376289E-001, +0.00000000000E+000
+6.96680625000E+007, +2.40912264945E+000, +0.00000000000E+000
+7.15428750000E+007, +5.75906921371E+000, +0.00000000000E+000
+7.34176875000E+007, +9.07944662591E+000, +0.00000000000E+000
+7.52925000000E+007, +1.23690123793E+001, +0.00000000000E+000
+7.71673125000E+007, +1.56225875115E+001, +0.00000000000E+000
+7.90421250000E+007, +1.87501963223E+001, +0.00000000000E+000
+8.09169375000E+007, +2.17636116304E+001, +0.00000000000E+000
+8.27917500000E+007, +2.45410822047E+001, +0.00000000000E+000
+8.46665625000E+007, +2.70550338148E+001, +0.00000000000E+000
+8.65413750000E+007, +2.91659914594E+001, +0.00000000000E+000
+8.84161875000E+007, +3.07565949100E+001, +0.00000000000E+000
+9.02910000000E+007, +3.16967477221E+001, +0.00000000000E+000
+9.21658125000E+007, +3.19807125402E+001, +0.00000000000E+000
+9.40406250000E+007, +3.16240817572E+001, +0.00000000000E+000
+9.59154375000E+007, +3.08843066236E+001, +0.00000000000E+000
+9.77902500000E+007, +2.97266232587E+001, +0.00000000000E+000
+9.96650625000E+007, +2.83881226769E+001, +0.00000000000E+000
+1.01539875000E+008, +2.68578865494E+001, +0.00000000000E+000
+1.03414687500E+008, +2.52008225612E+001, +0.00000000000E+000
+1.05289500000E+008, +2.34634978072E+001, +0.00000000000E+000
+1.07164312500E+008, +2.16629738274E+001, +0.00000000000E+000
+1.09039125000E+008, +1.97832716469E+001, +0.00000000000E+000
+1.10913937500E+008, +1.78704624792E+001, +0.00000000000E+000
+1.12788750000E+008, +1.59245871688E+001, +0.00000000000E+000
+1.14663562500E+008, +1.39560826949E+001, +0.00000000000E+000
+1.16538375000E+008, +1.19477322100E+001, +0.00000000000E+000
+1.18413187500E+008, +9.94789984439E+000, +0.00000000000E+000
+1.20288000000E+008, +7.93748116069E+000, +0.00000000000E+000
+1.22162812500E+008, +5.93605344560E+000, +0.00000000000E+000
+1.24037625000E+008, +3.91335205030E+000, +0.00000000000E+000
+1.25912437500E+008, +1.89975530916E+000, +0.00000000000E+000
+1.27787250000E+008, -1.12104335932E-001, +0.00000000000E+000
+1.29662062500E+008, -2.10768804023E+000, +0.00000000000E+000
+1.31536875000E+008, -4.10518273298E+000, +0.00000000000E+000
+1.33411687500E+008, -6.07443688172E+000, +0.00000000000E+000
+1.35286500000E+008, -8.04475275672E+000, +0.00000000000E+000
+1.37161312500E+008, -9.98720476903E+000, +0.00000000000E+000
+1.39036125000E+008, -1.19318870984E+001, +0.00000000000E+000
+1.40910937500E+008, -1.38388920866E+001, +0.00000000000E+000
+1.42785750000E+008, -1.57564524093E+001, +0.00000000000E+000
+1.44660562500E+008, -1.76312095824E+001, +0.00000000000E+000
+1.46535375000E+008, -1.94972594946E+001, +0.00000000000E+000
+1.48410187500E+008, -2.13340034296E+001, +0.00000000000E+000
+1.50285000000E+008, -2.31539415091E+001, +0.00000000000E+000
+1.52159812500E+008, -2.49656969241E+001, +0.00000000000E+000
+1.54034625000E+008, -2.67610481341E+001, +0.00000000000E+000
+1.55909437500E+008, -2.85127734204E+001, +0.00000000000E+000
+1.57784250000E+008, -3.02505054042E+001, +0.00000000000E+000
+1.59659062500E+008, -3.19605787830E+001, +0.00000000000E+000
+1.61533875000E+008, -3.36483300599E+001, +0.00000000000E+000
+1.63408687500E+008, -3.52936717386E+001, +0.00000000000E+000
+1.65283500000E+008, -3.69306873009E+001, +0.00000000000E+000
+1.67158312500E+008, -3.85389730855E+001, +0.00000000000E+000
+1.69033125000E+008, -4.01288130765E+001, +0.00000000000E+000
+1.70907937500E+008, -4.16895555328E+001, +0.00000000000E+000
+1.72782750000E+008, -4.32170936272E+001, +0.00000000000E+000
+1.74657562500E+008, -4.47017299929E+001, +0.00000000000E+000
+1.76532375000E+008, -4.61605939228E+001, +0.00000000000E+000
+1.78407187500E+008, -4.75802270766E+001, +0.00000000000E+000
+1.80282000000E+008, -4.89844795895E+001, +0.00000000000E+000
+1.82156812500E+008, -5.03345950301E+001, +0.00000000000E+000
+1.84031625000E+008, -5.16689576663E+001, +0.00000000000E+000
+1.85906437500E+008, -5.29704255798E+001, +0.00000000000E+000
+1.87781250000E+008, -5.42567908148E+001, +0.00000000000E+000
+1.89656062500E+008, -5.55008036928E+001, +0.00000000000E+000
+1.91530875000E+008, -5.67189902773E+001, +0.00000000000E+000
+1.93405687500E+008, -5.79142983815E+001, +0.00000000000E+000
+1.95280500000E+008, -5.90620905093E+001, +0.00000000000E+000
+1.97155312500E+008, -6.01863513292E+001, +0.00000000000E+000
+1.99030125000E+008, -6.12676821976E+001, +0.00000000000E+000
+2.00904937500E+008, -6.23204194729E+001, +0.00000000000E+000
+2.02779750000E+008, -6.33569616853E+001, +0.00000000000E+000
+2.04654562500E+008, -6.43611978302E+001, +0.00000000000E+000
+2.06529375000E+008, -6.53412888660E+001, +0.00000000000E+000
+2.08404187500E+008, -6.62902512530E+001, +0.00000000000E+000
+2.10279000000E+008, -6.72252252730E+001, +0.00000000000E+000
+2.12153812500E+008, -6.81340214120E+001, +0.00000000000E+000
+2.14028625000E+008, -6.90182317892E+001, +0.00000000000E+000
+2.15903437500E+008, -6.98822426785E+001, +0.00000000000E+000
+2.17778250000E+008, -7.07233729450E+001, +0.00000000000E+000
+2.19653062500E+008, -7.15509490552E+001, +0.00000000000E+000
+2.21527875000E+008, -7.23702446920E+001, +0.00000000000E+000
+2.23402687500E+008, -7.31735541280E+001, +0.00000000000E+000
+2.25277500000E+008, -7.39768167465E+001, +0.00000000000E+000
+2.27152312500E+008, -7.47635347950E+001, +0.00000000000E+000
+2.29027125000E+008, -7.55376098632E+001, +0.00000000000E+000
+2.30901937500E+008, -7.63137695923E+001, +0.00000000000E+000
+2.32776750000E+008, -7.70617397807E+001, +0.00000000000E+000
+2.34651562500E+008, -7.78086381887E+001, +0.00000000000E+000
+2.36526375000E+008, -7.85401096223E+001, +0.00000000000E+000
+2.38401187500E+008, -7.92826843130E+001, +0.00000000000E+000
+2.40276000000E+008, -8.00158403085E+001, +0.00000000000E+000
+2.42150812500E+008, -8.07658499834E+001, +0.00000000000E+000
+2.44025625000E+008, -8.15105398638E+001, +0.00000000000E+000
+2.45900437500E+008, -8.22719706551E+001, +0.00000000000E+000
+2.47775250000E+008, -8.30334002137E+001, +0.00000000000E+000
+2.49650062500E+008, -8.38042871140E+001, +0.00000000000E+000
+2.51524875000E+008, -8.45803000224E+001, +0.00000000000E+000
+2.53399687500E+008, -8.53691682002E+001, +0.00000000000E+000
+2.55274500000E+008, -8.61676894475E+001, +0.00000000000E+000
+2.57149312500E+008, -8.69896701320E+001, +0.00000000000E+000
+2.59024125000E+008, -8.78149140251E+001, +0.00000000000E+000
+2.60898937500E+008, -8.86666908973E+001, +0.00000000000E+000
+2.62773750000E+008, -8.95394649187E+001, +0.00000000000E+000
+2.64648562500E+008, -9.04270275944E+001, +0.00000000000E+000
+2.66523375000E+008, -9.13408898439E+001, +0.00000000000E+000
+2.68398187500E+008, -9.22743718220E+001, +0.00000000000E+000
+2.70273000000E+008, -9.32227147293E+001, +0.00000000000E+000
+2.72147812500E+008, -9.41911264503E+001, +0.00000000000E+000
+2.74022625000E+008, -9.51611952937E+001, +0.00000000000E+000
+2.75897437500E+008, -9.61711076762E+001, +0.00000000000E+000
+2.77772250000E+008, -9.71780623652E+001, +0.00000000000E+000
+2.79647062500E+008, -9.82281500751E+001, +0.00000000000E+000
+2.81521875000E+008, -9.92753316064E+001, +0.00000000000E+000
+2.83396687500E+008, -1.00376527462E+002, +0.00000000000E+000
+2.85271500000E+008, -1.01482430826E+002, +0.00000000000E+000
+2.87146312500E+008, -1.02616298419E+002, +0.00000000000E+000
+2.89021125000E+008, -1.03750576253E+002, +0.00000000000E+000
+2.90895937500E+008, -1.04910288046E+002, +0.00000000000E+000
+2.92770750000E+008, -1.06058033577E+002, +0.00000000000E+000
+2.94645562500E+008, -1.07243288860E+002, +0.00000000000E+000
+2.96520375000E+008, -1.08416074447E+002, +0.00000000000E+000
+2.98395187500E+008, -1.09627594094E+002, +0.00000000000E+000
+3.00270000000E+008, -1.10813518367E+002, +0.00000000000E+000
+3.02144812500E+008, -1.12040197950E+002, +0.00000000000E+000
+3.04019625000E+008, -1.13221036378E+002, +0.00000000000E+000
+3.05894437500E+008, -1.14433155733E+002, +0.00000000000E+000
+3.07769250000E+008, -1.15614583423E+002, +0.00000000000E+000
+3.09644062500E+008, -1.16787199302E+002, +0.00000000000E+000
+3.11518875000E+008, -1.17955959538E+002, +0.00000000000E+000
+3.13393687500E+008, -1.19106740752E+002, +0.00000000000E+000
+3.15268500000E+008, -1.20221402874E+002, +0.00000000000E+000
+3.17143312500E+008, -1.21338423968E+002, +0.00000000000E+000
+3.19018125000E+008, -1.22426806500E+002, +0.00000000000E+000
+3.20892937500E+008, -1.23500165496E+002, +0.00000000000E+000
+3.22767750000E+008, -1.24521236760E+002, +0.00000000000E+000
+3.24642562500E+008, -1.25530302222E+002, +0.00000000000E+000
+3.26517375000E+008, -1.26478628929E+002, +0.00000000000E+000
+3.28392187500E+008, -1.27389346676E+002, +0.00000000000E+000
+3.30267000000E+008, -1.28232002526E+002, +0.00000000000E+000
+3.32141812500E+008, -1.29043789179E+002, +0.00000000000E+000
+3.34016625000E+008, -1.29711663636E+002, +0.00000000000E+000
+3.35891437500E+008, -1.30363458629E+002, +0.00000000000E+000
+3.37766250000E+008, -1.30903358262E+002, +0.00000000000E+000
+3.39641062500E+008, -1.31411597136E+002, +0.00000000000E+000
+3.41515875000E+008, -1.31729093001E+002, +0.00000000000E+000
+3.43390687500E+008, -1.31993865961E+002, +0.00000000000E+000
+3.45265500000E+008, -1.32029466957E+002, +0.00000000000E+000
+3.47140312500E+008, -1.32031107700E+002, +0.00000000000E+000
+3.49015125000E+008, -1.31826884987E+002, +0.00000000000E+000
+3.50889937500E+008, -1.31461807030E+002, +0.00000000000E+000
+3.52764750000E+008, -1.30814372838E+002, +0.00000000000E+000
+3.54639562500E+008, -1.30019625309E+002, +0.00000000000E+000
+3.56514375000E+008, -1.28903659276E+002, +0.00000000000E+000
+3.58389187500E+008, -1.27639504468E+002, +0.00000000000E+000
+3.60264000000E+008, -1.26051538266E+002, +0.00000000000E+000
+3.62138812500E+008, -1.24211864353E+002, +0.00000000000E+000
+3.64013625000E+008, -1.22129158978E+002, +0.00000000000E+000
+3.65888437500E+008, -1.19847188456E+002, +0.00000000000E+000
+3.67763250000E+008, -1.17357567200E+002, +0.00000000000E+000
+3.69638062500E+008, -1.14703273313E+002, +0.00000000000E+000
+3.71512875000E+008, -1.11893636184E+002, +0.00000000000E+000
+3.73387687500E+008, -1.08940938105E+002, +0.00000000000E+000
+3.75262500000E+008, -1.05875214804E+002, +0.00000000000E+000
+3.77137312500E+008, -1.02752198573E+002, +0.00000000000E+000
+3.79012125000E+008, -9.95389092900E+001, +0.00000000000E+000
+3.80886937500E+008, -9.63199260706E+001, +0.00000000000E+000
+3.82761750000E+008, -9.29701215120E+001, +0.00000000000E+000
+3.84636562500E+008, -8.96416413598E+001, +0.00000000000E+000
+3.86511375000E+008, -8.62430286751E+001, +0.00000000000E+000
+3.88386187500E+008, -8.29419023839E+001, +0.00000000000E+000
+3.90261000000E+008, -7.96395551027E+001, +0.00000000000E+000
+3.92135812500E+008, -7.64742930430E+001, +0.00000000000E+000
+3.94010625000E+008, -7.32749134455E+001, +0.00000000000E+000
+3.95885437500E+008, -7.02091343487E+001, +0.00000000000E+000
+3.97760250000E+008, -6.72576089945E+001, +0.00000000000E+000
+3.99635062500E+008, -6.45167352458E+001, +0.00000000000E+000
+4.01509875000E+008, -6.18792805146E+001, +0.00000000000E+000
+4.03384687500E+008, -5.95163542693E+001, +0.00000000000E+000
+4.05259500000E+008, -5.72436586186E+001, +0.00000000000E+000
+4.07134312500E+008, -5.52411185764E+001, +0.00000000000E+000
+4.09009125000E+008, -5.34888746890E+001, +0.00000000000E+000
+4.10883937500E+008, -5.19218503606E+001, +0.00000000000E+000
+4.12758750000E+008, -5.05166633145E+001, +0.00000000000E+000
+4.14633562500E+008, -4.93251674013E+001, +0.00000000000E+000
+4.16508375000E+008, -4.82752413255E+001, +0.00000000000E+000
+4.18383187500E+008, -4.73521636108E+001, +0.00000000000E+000
+4.20258000000E+008, -4.65813301185E+001, +0.00000000000E+000
+4.22132812500E+008, -4.59134547902E+001, +0.00000000000E+000
+4.24007625000E+008, -4.53155967330E+001, +0.00000000000E+000
+4.25882437500E+008, -4.48002907657E+001, +0.00000000000E+000
+4.27757250000E+008, -4.43753770271E+001, +0.00000000000E+000
+4.29632062500E+008, -4.40837977068E+001, +0.00000000000E+000
+4.31506875000E+008, -4.38164044122E+001, +0.00000000000E+000
+4.33381687500E+008, -4.36521487552E+001, +0.00000000000E+000
+4.35256500000E+008, -4.35014732218E+001, +0.00000000000E+000
+4.37131312500E+008, -4.33943024434E+001, +0.00000000000E+000
+4.39006125000E+008, -4.33244921747E+001, +0.00000000000E+000
+4.40880937500E+008, -4.33281439380E+001, +0.00000000000E+000
+4.42755750000E+008, -4.33557243758E+001, +0.00000000000E+000
+4.44630562500E+008, -4.34427161340E+001, +0.00000000000E+000
+4.46505375000E+008, -4.35497726535E+001, +0.00000000000E+000
+4.48380187500E+008, -4.37074550325E+001, +0.00000000000E+000
+4.50255000000E+008, -4.39003164345E+001, +0.00000000000E+000
+4.52129812500E+008, -4.41443059396E+001, +0.00000000000E+000
+4.54004625000E+008, -4.44350567450E+001, +0.00000000000E+000
+4.55879437500E+008, -4.47418728678E+001, +0.00000000000E+000
+4.57754250000E+008, -4.50979766807E+001, +0.00000000000E+000
+4.59629062500E+008, -4.55011314121E+001, +0.00000000000E+000
+4.61503875000E+008, -4.59090948296E+001, +0.00000000000E+000
+4.63378687500E+008, -4.63690174620E+001, +0.00000000000E+000
+4.65253500000E+008, -4.68703740225E+001, +0.00000000000E+000
+4.67128312500E+008, -4.74029290111E+001, +0.00000000000E+000
+4.69003125000E+008, -4.79816319408E+001, +0.00000000000E+000
+4.70877937500E+008, -4.86012421017E+001, +0.00000000000E+000
+4.72752750000E+008, -4.92499661458E+001, +0.00000000000E+000
+4.74627562500E+008, -4.99434315011E+001, +0.00000000000E+000
+4.76502375000E+008, -5.06598904363E+001, +0.00000000000E+000
+4.78377187500E+008, -5.14345780087E+001, +0.00000000000E+000
+4.80252000000E+008, -5.22229316197E+001, +0.00000000000E+000
+4.82126812500E+008, -5.30679524280E+001, +0.00000000000E+000
+4.84001625000E+008, -5.39455771615E+001, +0.00000000000E+000
+4.85876437500E+008, -5.48576244971E+001, +0.00000000000E+000
+4.87751250000E+008, -5.58016346761E+001, +0.00000000000E+000
+4.89626062500E+008, -5.67735963084E+001, +0.00000000000E+000
+4.91500875000E+008, -5.77807636457E+001, +0.00000000000E+000
+4.93375687500E+008, -5.88305629522E+001, +0.00000000000E+000
+4.95250500000E+008, -5.99096283231E+001, +0.00000000000E+000
+4.97125312500E+008, -6.10194991684E+001, +0.00000000000E+000
+4.99000125000E+008, -6.21510373925E+001, +0.00000000000E+000
+5.00874937500E+008, -6.33209238415E+001, +0.00000000000E+000
+5.02749750000E+008, -6.45212513121E+001, +0.00000000000E+000
+5.04624562500E+008, -6.57485156668E+001, +0.00000000000E+000
+5.06499375000E+008, -6.70021163989E+001, +0.00000000000E+000
+5.08374187500E+008, -6.82852763434E+001, +0.00000000000E+000
+5.10249000000E+008, -6.95943717436E+001, +0.00000000000E+000
+5.12123812500E+008, -7.09275957017E+001, +0.00000000000E+000
+5.13998625000E+008, -7.22847476633E+001, +0.00000000000E+000
+5.15873437500E+008, -7.36686273482E+001, +0.00000000000E+000
+5.17748250000E+008, -7.50690101092E+001, +0.00000000000E+000
+5.19623062500E+008, -7.64955203750E+001, +0.00000000000E+000
+5.21497875000E+008, -7.79392834605E+001, +0.00000000000E+000
+5.23372687500E+008, -7.94043256933E+001, +0.00000000000E+000
+5.25247500000E+008, -8.08870851714E+001, +0.00000000000E+000
+5.27122312500E+008, -8.23885199811E+001, +0.00000000000E+000
+5.28997125000E+008, -8.39163538578E+001, +0.00000000000E+000
+5.30871937500E+008, -8.54590059314E+001, +0.00000000000E+000
+5.32746750000E+008, -8.70209077090E+001, +0.00000000000E+000
+5.34621562500E+008, -8.86023812319E+001, +0.00000000000E+000
+5.36496375000E+008, -9.02023976781E+001, +0.00000000000E+000
+5.38371187500E+008, -9.18127982785E+001, +0.00000000000E+000
+5.40246000000E+008, -9.34439586068E+001, +0.00000000000E+000
+5.42120812500E+008, -9.50882469328E+001, +0.00000000000E+000
+5.43995625000E+008, -9.67480445802E+001, +0.00000000000E+000
+5.45870437500E+008, -9.84238231519E+001, +0.00000000000E+000
+5.47745250000E+008, -1.00112221504E+002, +0.00000000000E+000
+5.49620062500E+008, -1.01811139423E+002, +0.00000000000E+000
+5.51494875000E+008, -1.03527399114E+002, +0.00000000000E+000
+5.53369687500E+008, -1.05251824460E+002, +0.00000000000E+000
+5.55244500000E+008, -1.06996071490E+002, +0.00000000000E+000
+5.57119312500E+008, -1.08748412632E+002, +0.00000000000E+000
+5.58994125000E+008, -1.10518213512E+002, +0.00000000000E+000
+5.60868937500E+008, -1.12294840748E+002, +0.00000000000E+000
+5.62743750000E+008, -1.14086698601E+002, +0.00000000000E+000
+5.64618562500E+008, -1.15884700901E+002, +0.00000000000E+000
+5.66493375000E+008, -1.17695661548E+002, +0.00000000000E+000
+5.68368187500E+008, -1.19520092934E+002, +0.00000000000E+000
+5.70243000000E+008, -1.21358666601E+002, +0.00000000000E+000
+5.72117812500E+008, -1.23203720231E+002, +0.00000000000E+000
+5.73992625000E+008, -1.25066482296E+002, +0.00000000000E+000
+5.75867437500E+008, -1.26932621428E+002, +0.00000000000E+000
+5.77742250000E+008, -1.28814247544E+002, +0.00000000000E+000
+5.79617062500E+008, -1.30702669751E+002, +0.00000000000E+000
+5.81491875000E+008, -1.32602953487E+002, +0.00000000000E+000
+5.83366687500E+008, -1.34512066559E+002, +0.00000000000E+000
+5.85241500000E+008, -1.36440868315E+002, +0.00000000000E+000
+5.87116312500E+008, -1.38372566706E+002, +0.00000000000E+000
+5.88991125000E+008, -1.40326338267E+002, +0.00000000000E+000
+5.90865937500E+008, -1.42288278844E+002, +0.00000000000E+000
