"# Channel 2"
"# Trace 1"
Frequency, Formatted Data, Formatted Data
+3.00000000000E+005, +8.66731431627E+000, +0.00000000000E+000
+2.17481250000E+006, +1.17553054086E+000, +0.00000000000E+000
+4.04962500000E+006, -2.14113917422E+000, +0.00000000000E+000
+5.92443750000E+006, -4.98330947191E+000, +0.00000000000E+000
+7.79925000000E+006, -7.81216142354E+000, +0.00000000000E+000
+9.67406250000E+006, -1.07867368299E+001, +0.00000000000E+000
+1.15488750000E+007, -1.38419012373E+001, +0.00000000000E+000
+1.34236875000E+007, -1.68477652462E+001, +0.00000000000E+000
+1.52985000000E+007, -1.98745796470E+001, +0.00000000000E+000
+1.71733125000E+007, -2.29426248514E+001, +0.00000000000E+000
+1.90481250000E+007, -2.60754544941E+001, +0.00000000000E+000
+2.09229375000E+007, -2.93378726505E+001, +0.00000000000E+000
+2.27977500000E+007, -3.27288473965E+001, +0.00000000000E+000
+2.46725625000E+007, -3.62305758895E+001, +0.00000000000E+000
+2.65473750000E+007, -3.96460911920E+001, +0.00000000000E+000
+2.84221875000E+007, -4.29354590109E+001, +0.00000000000E+000
+3.02970000000E+007, -4.64999519131E+001, +0.00000000000E+000
+3.21718125000E+007, -5.01859333160E+001, +0.00000000000E+000
+3.40466250000E+007, -5.40197268340E+001, +0.00000000000E+000
+3.59214375000E+007, -5.80722476283E+001, +0.00000000000E+000
+3.77962500000E+007, -6.23212457887E+001, +0.00000000000E+000
+3.96710625000E+007, -6.68613286573E+001, +0.00000000000E+000
+4.15458750000E+007, -7.16944007476E+001, +0.00000000000E+000
+4.34206875000E+007, -7.69202643817E+001, +0.00000000000E+000
+4.52955000000E+007, -8.25223974786E+001, +0.00000000000E+000
+4.71703125000E+007, -8.85964185999E+001, +0.00000000000E+000
+4.90451250000E+007, -9.51351232726E+001, +0.00000000000E+000
+5.09199375000E+007, -1.02125618544E+002, +0.00000000000E+000
+5.27947500000E+007, -1.09500515523E+002, +0.00000000000E+000
+5.46695625000E+007, -1.17170912536E+002, +0.00000000000E+000
+5.65443750000E+007, -1.25097011629E+002, +0.00000000000E+000
+5.84191875000E+007, -1.33225287428E+002, +0.00000000000E+000
+6.02940000000E+007, -1.41532988939E+002, +0.00000000000E+000
+6.21688125000E+007, -1.49970064547E+002, +0.00000000000E+000
+6.40436250000E+007, -1.58503521169E+002, +0.00000000000E+000
+6.59184375000E+007, -1.67126481197E+002, +0.00000000000E+000
+6.77932500000E+007, -1.75817658572E+002, +0.00000000000E+000
+6.96680625000E+007, +1.75457807155E+002, +0.00000000000E+000
+7.15428750000E+007, +1.66728989079E+002, +0.00000000000E+000
+7.34176875000E+007, +1.57988661905E+002, +0.00000000000E+000
+7.52925000000E+007, +1.49288142984E+002, +0.00000000000E+000
+7.71673125000E+007, +1.40625845544E+002, +0.00000000000E+000
+7.90421250000E+007, +1.32041840709E+002, +0.00000000000E+000
+8.09169375000E+007, +1.23519431376E+002, +0.00000000000E+000
+8.27917500000E+007, +1.15129575817E+002, +0.00000000000E+000
+8.46665625000E+007, +1.06884442543E+002, +0.00000000000E+000
+8.65413750000E+007, +9.88925336595E+001, +0.00000000000E+000
+8.84161875000E+007, +9.11615485785E+001, +0.00000000000E+000
+9.02910000000E+007, +8.38077534821E+001, +0.00000000000E+000
+9.21658125000E+007, +7.68188679579E+001, +0.00000000000E+000
+9.40406250000E+007, +7.02552530551E+001, +0.00000000000E+000
+9.59154375000E+007, +6.41398850855E+001, +0.00000000000E+000
+9.77902500000E+007, +5.84539489290E+001, +0.00000000000E+000
+9.96650625000E+007, +5.31478048908E+001, +0.00000000000E+000
+1.01539875000E+008, +4.81389479211E+001, +0.00000000000E+000
+1.03414687500E+008, +4.34107635092E+001, +0.00000000000E+000
+1.05289500000E+008, +3.89087979545E+001, +0.00000000000E+000
+1.07164312500E+008, +3.46233048297E+001, +0.00000000000E+000
+1.09039125000E+008, +3.05338583695E+001, +0.00000000000E+000
+1.10913937500E+008, +2.66408296736E+001, +0.00000000000E+000
+1.12788750000E+008, +2.29305276686E+001, +0.00000000000E+000
+1.14663562500E+008, +1.94200248111E+001, +0.00000000000E+000
+1.16538375000E+008, +1.60933564467E+001, +0.00000000000E+000
+1.18413187500E+008, +1.29829231504E+001, +0.00000000000E+000
+1.20288000000E+008, +1.00844621155E+001, +0.00000000000E+000
+1.22162812500E+008, +7.42157836165E+000, +0.00000000000E+000
+1.24037625000E+008, +5.00161107789E+000, +0.00000000000E+000
+1.25912437500E+008, +2.81732161038E+000, +0.00000000000E+000
+1.27787250000E+008, +8.81860288415E-001, +0.00000000000E+000
+1.29662062500E+008, -8.02534435011E-001, +0.00000000000E+000
+1.31536875000E+008, -2.25548387711E+000, +0.00000000000E+000
+1.33411687500E+008, -3.49521683903E+000, +0.00000000000E+000
+1.35286500000E+008, -4.54492991559E+000, +0.00000000000E+000
+1.37161312500E+008, -5.42606823712E+000, +0.00000000000E+000
+1.39036125000E+008, -6.18090977930E+000, +0.00000000000E+000
+1.40910937500E+008, -6.79313105769E+000, +0.00000000000E+000
+1.42785750000E+008, -7.31879036185E+000, +0.00000000000E+000
+1.44660562500E+008, -7.76994605979E+000, +0.00000000000E+000
+1.46535375000E+008, -8.16289577336E+000, +0.00000000000E+000
+1.48410187500E+008, -8.50618124996E+000, +0.00000000000E+000
+1.50285000000E+008, -8.84595517014E+000, +0.00000000000E+000
+1.52159812500E+008, -9.19101291746E+000, +0.00000000000E+000
+1.54034625000E+008, -9.54138935350E+000, +0.00000000000E+000
+1.55909437500E+008, -9.94801923839E+000, +0.00000000000E+000
+1.57784250000E+008, -1.04203169786E+001, +0.00000000000E+000
+1.59659062500E+008, -1.09651870360E+001, +0.00000000000E+000
+1.61533875000E+008, -1.16115699721E+001, +0.00000000000E+000
+1.63408687500E+008, -1.23886244686E+001, +0.00000000000E+000
+1.65283500000E+008, -1.33170209319E+001, +0.00000000000E+000
+1.67158312500E+008, -1.44122082095E+001, +0.00000000000E+000
+1.69033125000E+008, -1.57044877570E+001, +0.00000000000E+000
+1.70907937500E+008, -1.72166280922E+001, +0.00000000000E+000
+1.72782750000E+008, -1.89542348071E+001, +0.00000000000E+000
+1.74657562500E+008, -2.09281344083E+001, +0.00000000000E+000
+1.76532375000E+008, -2.31325187089E+001, +0.00000000000E+000
+1.78407187500E+008, -2.55668559604E+001, +0.00000000000E+000
+1.80282000000E+008, -2.82157368241E+001, +0.00000000000E+000
+1.82156812500E+008, -3.10671876883E+001, +0.00000000000E+000
+1.84031625000E+008, -3.41069554593E+001, +0.00000000000E+000
+1.85906437500E+008, -3.72983618214E+001, +0.00000000000E+000
+1.87781250000E+008, -4.06395506299E+001, +0.00000000000E+000
+1.89656062500E+008, -4.41159831254E+001, +0.00000000000E+000
+1.91530875000E+008, -4.76991041744E+001, +0.00000000000E+000
+1.93405687500E+008, -5.13873826309E+001, +0.00000000000E+000
+1.95280500000E+008, -5.51688609183E+001, +0.00000000000E+000
+1.97155312500E+008, -5.90349620135E+001, +0.00000000000E+000
+1.99030125000E+008, -6.29655123857E+001, +0.00000000000E+000
+2.00904937500E+008, -6.69746781122E+001, +0.00000000000E+000
+2.02779750000E+008, -7.10403482129E+001, +0.00000000000E+000
+2.04654562500E+008, -7.51534581964E+001, +0.00000000000E+000
+2.06529375000E+008, -7.93140055484E+001, +0.00000000000E+000
+2.08404187500E+008, -8.35329684805E+001, +0.00000000000E+000
+2.10279000000E+008, -8.77940021536E+001, +0.00000000000E+000
+2.12153812500E+008, -9.20967226428E+001, +0.00000000000E+000
+2.14028625000E+008, -9.64465631019E+001, +0.00000000000E+000
+2.15903437500E+008, -1.00838840609E+002, +0.00000000000E+000
+2.17778250000E+008, -1.05277465778E+002, +0.00000000000E+000
+2.19653062500E+008, -1.09780444419E+002, +0.00000000000E+000
+2.21527875000E+008, -1.14340905173E+002, +0.00000000000E+000
+2.23402687500E+008, -1.18989109304E+002, +0.00000000000E+000
+2.25277500000E+008, -1.23773728614E+002, +0.00000000000E+000
+2.27152312500E+008, -1.28767539153E+002, +0.00000000000E+000
+2.29027125000E+008, -1.34273419220E+002, +0.00000000000E+000
+2.30901937500E+008, -1.41108179444E+002, +0.00000000000E+000
+2.32776750000E+008, -1.50533663290E+002, +0.00000000000E+000
+2.34651562500E+008, -1.60982236965E+002, +0.00000000000E+000
+2.36526375000E+008, -1.71737617392E+002, +0.00000000000E+000
+2.38401187500E+008, +1.77277497860E+002, +0.00000000000E+000
+2.40276000000E+008, +1.66191632102E+002, +0.00000000000E+000
+2.42150812500E+008, +1.55046116222E+002, +0.00000000000E+000
+2.44025625000E+008, +1.43897683444E+002, +0.00000000000E+000
+2.45900437500E+008, +1.32687348308E+002, +0.00000000000E+000
+2.47775250000E+008, +1.21475869475E+002, +0.00000000000E+000
+2.49650062500E+008, +1.10244116471E+002, +0.00000000000E+000
+2.51524875000E+008, +9.90179152004E+001, +0.00000000000E+000
+2.53399687500E+008, +8.77821486473E+001, +0.00000000000E+000
+2.55274500000E+008, +7.65653757951E+001, +0.00000000000E+000
+2.57149312500E+008, +6.53638752507E+001, +0.00000000000E+000
+2.59024125000E+008, +5.41752355811E+001, +0.00000000000E+000
+2.60898937500E+008, +4.30119125702E+001, +0.00000000000E+000
+2.62773750000E+008, +3.18825407748E+001, +0.00000000000E+000
+2.64648562500E+008, +2.07817100291E+001, +0.00000000000E+000
+2.66523375000E+008, +9.76092278814E+000, +0.00000000000E+000
+2.68398187500E+008, -1.21023769878E+000, +0.00000000000E+000
+2.70273000000E+008, -1.20765561426E+001, +0.00000000000E+000
+2.72147812500E+008, -2.28013679605E+001, +0.00000000000E+000
+2.74022625000E+008, -3.32894103621E+001, +0.00000000000E+000
+2.75897437500E+008, -4.32381793389E+001, +0.00000000000E+000
+2.77772250000E+008, -5.18173883197E+001, +0.00000000000E+000
+2.79647062500E+008, -5.77622556210E+001, +0.00000000000E+000
+2.81521875000E+008, -6.26232021727E+001, +0.00000000000E+000
+2.83396687500E+008, -6.71228310475E+001, +0.00000000000E+000
+2.85271500000E+008, -7.13010815799E+001, +0.00000000000E+000
+2.87146312500E+008, -7.52888121219E+001, +0.00000000000E+000
+2.89021125000E+008, -7.91062456381E+001, +0.00000000000E+000
+2.90895937500E+008, -8.27665324963E+001, +0.00000000000E+000
+2.92770750000E+008, -8.62075793487E+001, +0.00000000000E+000
+2.94645562500E+008, -8.94295198255E+001, +0.00000000000E+000
+2.96520375000E+008, -9.23972636014E+001, +0.00000000000E+000
+2.98395187500E+008, -9.51021259642E+001, +0.00000000000E+000
+3.00270000000E+008, -9.74687715284E+001, +0.00000000000E+000
+3.02144812500E+008, -9.95103378368E+001, +0.00000000000E+000
+3.04019625000E+008, -1.01210799534E+002, +0.00000000000E+000
+3.05894437500E+008, -1.02596600085E+002, +0.00000000000E+000
+3.07769250000E+008, -1.03649896947E+002, +0.00000000000E+000
+3.09644062500E+008, -1.04455165911E+002, +0.00000000000E+000
+3.11518875000E+008, -1.05006963750E+002, +0.00000000000E+000
+3.13393687500E+008, -1.05393357483E+002, +0.00000000000E+000
+3.15268500000E+008, -1.05616747760E+002, +0.00000000000E+000
+3.17143312500E+008, -1.05724849902E+002, +0.00000000000E+000
+3.19018125000E+008, -1.05738916817E+002, +0.00000000000E+000
+3.20892937500E+008, -1.05688556104E+002, +0.00000000000E+000
+3.22767750000E+008, -1.05587986564E+002, +0.00000000000E+000
+3.24642562500E+008, -1.05488069241E+002, +0.00000000000E+000
+3.26517375000E+008, -1.05366121414E+002, +0.00000000000E+000
+3.28392187500E+008, -1.05277108070E+002, +0.00000000000E+000
+3.30267000000E+008, -1.05206274739E+002, +0.00000000000E+000
+3.32141812500E+008, -1.05228179526E+002, +0.00000000000E+000
+3.34016625000E+008, -1.05322105111E+002, +0.00000000000E+000
+3.35891437500E+008, -1.05516417793E+002, +0.00000000000E+000
+3.37766250000E+008, -1.05867368041E+002, +0.00000000000E+000
+3.39641062500E+008, -1.06387994692E+002, +0.00000000000E+000
+3.41515875000E+008, -1.07145405020E+002, +0.00000000000E+000
+3.43390687500E+008, -1.08147310682E+002, +0.00000000000E+000
+3.45265500000E+008, -1.09447163562E+002, +0.00000000000E+000
+3.47140312500E+008, -1.11114163726E+002, +0.00000000000E+000
+3.49015125000E+008, -1.13160697512E+002, +0.00000000000E+000
+3.50889937500E+008, -1.15617959299E+002, +0.00000000000E+000
+3.52764750000E+008, -1.18465669088E+002, +0.00000000000E+000
+3.54639562500E+008, -1.21715570189E+002, +0.00000000000E+000
+3.56514375000E+008, -1.25336383235E+002, +0.00000000000E+000
+3.58389187500E+008, -1.29305192942E+002, +0.00000000000E+000
+3.60264000000E+008, -1.33590461389E+002, +0.00000000000E+000
+3.62138812500E+008, -1.38164601665E+002, +0.00000000000E+000
+3.64013625000E+008, -1.43045881641E+002, +0.00000000000E+000
+3.65888437500E+008, -1.48181061563E+002, +0.00000000000E+000
+3.67763250000E+008, -1.53606013793E+002, +0.00000000000E+000
+3.69638062500E+008, -1.59277768919E+002, +0.00000000000E+000
+3.71512875000E+008, -1.65206745654E+002, +0.00000000000E+000
+3.73387687500E+008, -1.71388050755E+002, +0.00000000000E+000
+3.75262500000E+008, -1.77823157977E+002, +0.00000000000E+000
+3.77137312500E+008, +1.75508151076E+002, +0.00000000000E+000
+3.79012125000E+008, +1.68626273617E+002, +0.00000000000E+000
+3.80886937500E+008, +1.61531836323E+002, +0.00000000000E+000
+3.82761750000E+008, +1.54228266771E+002, +0.00000000000E+000
+3.84636562500E+008, +1.46762627802E+002, +0.00000000000E+000
+3.86511375000E+008, +1.39143354421E+002, +0.00000000000E+000
+3.88386187500E+008, +1.31410909965E+002, +0.00000000000E+000
+3.90261000000E+008, +1.23560133364E+002, +0.00000000000E+000
+3.92135812500E+008, +1.15620040655E+002, +0.00000000000E+000
+3.94010625000E+008, +1.07618089495E+002, +0.00000000000E+000
+3.95885437500E+008, +9.95692031855E+001, +0.00000000000E+000
+3.97760250000E+008, +9.15206931405E+001, +0.00000000000E+000
+3.99635062500E+008, +8.34491940837E+001, +0.00000000000E+000
+4.01509875000E+008, +7.53872806469E+001, +0.00000000000E+000
+4.03384687500E+008, +6.73775766167E+001, +0.00000000000E+000
+4.05259500000E+008, +5.94194804719E+001, +0.00000000000E+000
+4.07134312500E+008, +5.15369563038E+001, +0.00000000000E+000
+4.09009125000E+008, +4.37409571028E+001, +0.00000000000E+000
+4.10883937500E+008, +3.60883010256E+001, +0.00000000000E+000
+4.12758750000E+008, +2.85626710310E+001, +0.00000000000E+000
+4.14633562500E+008, +2.12052782335E+001, +0.00000000000E+000
+4.16508375000E+008, +1.40183983694E+001, +0.00000000000E+000
+4.18383187500E+008, +7.05375520943E+000, +0.00000000000E+000
+4.20258000000E+008, +2.87439157711E-001, +0.00000000000E+000
+4.22132812500E+008, -6.23957595644E+000, +0.00000000000E+000
+4.24007625000E+008, -1.25189205924E+001, +0.00000000000E+000
+4.25882437500E+008, -1.85364315730E+001, +0.00000000000E+000
+4.27757250000E+008, -2.42914777853E+001, +0.00000000000E+000
+4.29632062500E+008, -2.97595645250E+001, +0.00000000000E+000
+4.31506875000E+008, -3.49261001722E+001, +0.00000000000E+000
+4.33381687500E+008, -3.97608820882E+001, +0.00000000000E+000
+4.35256500000E+008, -4.42229000108E+001, +0.00000000000E+000
+4.37131312500E+008, -4.82159102104E+001, +0.00000000000E+000
+4.39006125000E+008, -5.16526884860E+001, +0.00000000000E+000
+4.40880937500E+008, -5.44221261166E+001, +0.00000000000E+000
+4.42755750000E+008, -5.64071607161E+001, +0.00000000000E+000
+4.44630562500E+008, -5.76771353410E+001, +0.00000000000E+000
+4.46505375000E+008, -5.82712336953E+001, +0.00000000000E+000
+4.48380187500E+008, -5.83861788534E+001, +0.00000000000E+000
+4.50255000000E+008, -5.81181595236E+001, +0.00000000000E+000
+4.52129812500E+008, -5.75724738206E+001, +0.00000000000E+000
+4.54004625000E+008, -5.67697648463E+001, +0.00000000000E+000
+4.55879437500E+008, -5.58073898214E+001, +0.00000000000E+000
+4.57754250000E+008, -5.47026748414E+001, +0.00000000000E+000
+4.59629062500E+008, -5.34834907003E+001, +0.00000000000E+000
+4.61503875000E+008, -5.21657429733E+001, +0.00000000000E+000
+4.63378687500E+008, -5.07916126344E+001, +0.00000000000E+000
+4.65253500000E+008, -4.93646872541E+001, +0.00000000000E+000
+4.67128312500E+008, -4.78962234027E+001, +0.00000000000E+000
+4.69003125000E+008, -4.63936401214E+001, +0.00000000000E+000
+4.70877937500E+008, -4.48963744525E+001, +0.00000000000E+000
+4.72752750000E+008, -4.34039742001E+001, +0.00000000000E+000
+4.74627562500E+008, -4.19443145516E+001, +0.00000000000E+000
+4.76502375000E+008, -4.05334870289E+001, +0.00000000000E+000
+4.78377187500E+008, -3.92109209474E+001, +0.00000000000E+000
+4.80252000000E+008, -3.80220455498E+001, +0.00000000000E+000
+4.82126812500E+008, -3.70178538621E+001, +0.00000000000E+000
+4.84001625000E+008, -3.63140869661E+001, +0.00000000000E+000
+4.85876437500E+008, -3.60048090173E+001, +0.00000000000E+000
+4.87751250000E+008, -3.62281650129E+001, +0.00000000000E+000
+4.89626062500E+008, -3.70917824630E+001, +0.00000000000E+000
+4.91500875000E+008, -3.85674275496E+001, +0.00000000000E+000
+4.93375687500E+008, -4.05788368587E+001, +0.00000000000E+000
+4.95250500000E+008, -4.29739900137E+001, +0.00000000000E+000
+4.97125312500E+008, -4.56511224210E+001, +0.00000000000E+000
+4.99000125000E+008, -4.85277975132E+001, +0.00000000000E+000
+5.00874937500E+008, -5.15674864099E+001, +0.00000000000E+000
+5.02749750000E+008, -5.46859138900E+001, +0.00000000000E+000
+5.04624562500E+008, -5.78817926600E+001, +0.00000000000E+000
+5.06499375000E+008, -6.11223584595E+001, +0.00000000000E+000
+5.08374187500E+008, -6.43840104855E+001, +0.00000000000E+000
+5.10249000000E+008, -6.76564495917E+001, +0.00000000000E+000
+5.12123812500E+008, -7.09382618084E+001, +0.00000000000E+000
+5.13998625000E+008, -7.42079761314E+001, +0.00000000000E+000
+5.15873437500E+008, -7.74537020425E+001, +0.00000000000E+000
+5.17748250000E+008, -8.06843171478E+001, +0.00000000000E+000
+5.19623062500E+008, -8.38896382519E+001, +0.00000000000E+000
+5.21497875000E+008, -8.70525710577E+001, +0.00000000000E+000
+5.23372687500E+008, -9.01804128628E+001, +0.00000000000E+000
+5.25247500000E+008, -9.32561410033E+001, +0.00000000000E+000
+5.27122312500E+008, -9.62937869973E+001, +0.00000000000E+000
+5.28997125000E+008, -9.92679882321E+001, +0.00000000000E+000
+5.30871937500E+008, -1.02188331384E+002, +0.00000000000E+000
+5.32746750000E+008, -1.05043427533E+002, +0.00000000000E+000
+5.34621562500E+008, -1.07835691478E+002, +0.00000000000E+000
+5.36496375000E+008, -1.10559884883E+002, +0.00000000000E+000
+5.38371187500E+008, -1.13216784759E+002, +0.00000000000E+000
+5.40246000000E+008, -1.15798234847E+002, +0.00000000000E+000
+5.42120812500E+008, -1.18309768192E+002, +0.00000000000E+000
+5.43995625000E+008, -1.20744651280E+002, +0.00000000000E+000
+5.45870437500E+008, -1.23106974137E+002, +0.00000000000E+000
+5.47745250000E+008, -1.25397265025E+002, +0.00000000000E+000
+5.49620062500E+008, -1.27617310774E+002, +0.00000000000E+000
+5.51494875000E+008, -1.29766038676E+002, +0.00000000000E+000
+5.53369687500E+008, -1.31846242730E+002, +0.00000000000E+000
+5.55244500000E+008, -1.33865783077E+002, +0.00000000000E+000
+5.57119312500E+008, -1.35825738449E+002, +0.00000000000E+000
+5.58994125000E+008, -1.37733017904E+002, +0.00000000000E+000
+5.60868937500E+008, -1.39596508409E+002, +0.00000000000E+000
+5.62743750000E+008, -1.41415999062E+002, +0.00000000000E+000
+5.64618562500E+008, -1.43199508519E+002, +0.00000000000E+000
+5.66493375000E+008, -1.44958389933E+002, +0.00000000000E+000
+5.68368187500E+008, -1.46693820450E+002, +0.00000000000E+000
+5.70243000000E+008, -1.48416347851E+002, +0.00000000000E+000
+5.72117812500E+008, -1.50133737724E+002, +0.00000000000E+000
+5.73992625000E+008, -1.51848793038E+002, +0.00000000000E+000
+5.75867437500E+008, -1.53575625262E+002, +0.00000000000E+000
+5.77742250000E+008, -1.55314809044E+002, +0.00000000000E+000
+5.79617062500E+008, -1.57087740584E+002, +0.00000000000E+000
+5.81491875000E+008, -1.58891744148E+002, +0.00000000000E+000
+5.83366687500E+008, -1.60730114519E+002, +0.00000000000E+000
+5.85241500000E+008, -1.62626870935E+002, +0.00000000000E+000
+5.87116312500E+008, -1.64569429532E+002, +0.00000000000E+000
+5.88991125000E+008, -1.66576644700E+002, +0.00000000000E+000
+5.90865937500E+008, -1.68646640042E+002, +0.00000000000E+000
