"# Channel 1"
"# Trace 1"
Frequency, Formatted Data, Formatted Data
+3.00000000000E+005, +4.58093198551E+000, +0.00000000000E+000
+2.17481250000E+006, +4.43800640742E+000, +0.00000000000E+000
+4.04962500000E+006, +4.37854574454E+000, +0.00000000000E+000
+5.92443750000E+006, +4.32304514600E+000, +0.00000000000E+000
+7.79925000000E+006, +4.27177280986E+000, +0.00000000000E+000
+9.67406250000E+006, +4.22091646431E+000, +0.00000000000E+000
+1.15488750000E+007, +4.16791666110E+000, +0.00000000000E+000
+1.34236875000E+007, +4.11615427368E+000, +0.00000000000E+000
+1.52985000000E+007, +4.06245576296E+000, +0.00000000000E+000
+1.71733125000E+007, +4.00834925275E+000, +0.00000000000E+000
+1.90481250000E+007, +3.95467899939E+000, +0.00000000000E+000
+2.09229375000E+007, +3.90062704169E+000, +0.00000000000E+000
+2.27977500000E+007, +3.84458927571E+000, +0.00000000000E+000
+2.46725625000E+007, +3.78542468720E+000, +0.00000000000E+000
+2.65473750000E+007, +3.73122573391E+000, +0.00000000000E+000
+2.84221875000E+007, +3.67791610356E+000, +0.00000000000E+000
+3.02970000000E+007, +3.62128011822E+000, +0.00000000000E+000
+3.21718125000E+007, +3.56498590872E+000, +0.00000000000E+000
+3.40466250000E+007, +3.50758169484E+000, +0.00000000000E+000
+3.59214375000E+007, +3.45133138190E+000, +0.00000000000E+000
+3.77962500000E+007, +3.39190114949E+000, +0.00000000000E+000
+3.96710625000E+007, +3.33298771535E+000, +0.00000000000E+000
+4.15458750000E+007, +3.27179451390E+000, +0.00000000000E+000
+4.34206875000E+007, +3.21155177415E+000, +0.00000000000E+000
+4.52955000000E+007, +3.14926123011E+000, +0.00000000000E+000
+4.71703125000E+007, +3.08814636328E+000, +0.00000000000E+000
+4.90451250000E+007, +3.02484630344E+000, +0.00000000000E+000
+5.09199375000E+007, +2.96213470628E+000, +0.00000000000E+000
+5.27947500000E+007, +2.89703442677E+000, +0.00000000000E+000
+5.46695625000E+007, +2.83325366459E+000, +0.00000000000E+000
+5.65443750000E+007, +2.76689876576E+000, +0.00000000000E+000
+5.84191875000E+007, +2.70172352570E+000, +0.00000000000E+000
+6.02940000000E+007, +2.63225756823E+000, +0.00000000000E+000
+6.21688125000E+007, +2.56682974391E+000, +0.00000000000E+000
+6.40436250000E+007, +2.49725904899E+000, +0.00000000000E+000
+6.59184375000E+007, +2.42893682898E+000, +0.00000000000E+000
+6.77932500000E+007, +2.35806237787E+000, +0.00000000000E+000
+6.96680625000E+007, +2.28875992488E+000, +0.00000000000E+000
+7.15428750000E+007, +2.21742534415E+000, +0.00000000000E+000
+7.34176875000E+007, +2.14695281250E+000, +0.00000000000E+000
+7.52925000000E+007, +2.07342000736E+000, +0.00000000000E+000
+7.71673125000E+007, +2.00098019499E+000, +0.00000000000E+000
+7.90421250000E+007, +1.92834591634E+000, +0.00000000000E+000
+8.09169375000E+007, +1.85941242632E+000, +0.00000000000E+000
+8.27917500000E+007, +1.79162499818E+000, +0.00000000000E+000
+8.46665625000E+007, +1.72821682230E+000, +0.00000000000E+000
+8.65413750000E+007, +1.66438873773E+000, +0.00000000000E+000
+8.84161875000E+007, +1.60807930100E+000, +0.00000000000E+000
+9.02910000000E+007, +1.55018377024E+000, +0.00000000000E+000
+9.21658125000E+007, +1.49695441947E+000, +0.00000000000E+000
+9.40406250000E+007, +1.44515876455E+000, +0.00000000000E+000
+9.59154375000E+007, +1.39696786244E+000, +0.00000000000E+000
+9.77902500000E+007, +1.34905770578E+000, +0.00000000000E+000
+9.96650625000E+007, +1.30709424776E+000, +0.00000000000E+000
+1.01539875000E+008, +1.26492147889E+000, +0.00000000000E+000
+1.03414687500E+008, +1.22937273702E+000, +0.00000000000E+000
+1.05289500000E+008, +1.19371163388E+000, +0.00000000000E+000
+1.07164312500E+008, +1.16257218297E+000, +0.00000000000E+000
+1.09039125000E+008, +1.13177494749E+000, +0.00000000000E+000
+1.10913937500E+008, +1.10535806777E+000, +0.00000000000E+000
+1.12788750000E+008, +1.07920607860E+000, +0.00000000000E+000
+1.14663562500E+008, +1.05993911756E+000, +0.00000000000E+000
+1.16538375000E+008, +1.03976933074E+000, +0.00000000000E+000
+1.18413187500E+008, +1.02406616550E+000, +0.00000000000E+000
+1.20288000000E+008, +1.00975151779E+000, +0.00000000000E+000
+1.22162812500E+008, +9.98418112596E-001, +0.00000000000E+000
+1.24037625000E+008, +9.90847015129E-001, +0.00000000000E+000
+1.25912437500E+008, +9.84895928760E-001, +0.00000000000E+000
+1.27787250000E+008, +9.76280295950E-001, +0.00000000000E+000
+1.29662062500E+008, +9.69041633800E-001, +0.00000000000E+000
+1.31536875000E+008, +9.60555869992E-001, +0.00000000000E+000
+1.33411687500E+008, +9.54254499305E-001, +0.00000000000E+000
+1.35286500000E+008, +9.45820857927E-001, +0.00000000000E+000
+1.37161312500E+008, +9.39269151980E-001, +0.00000000000E+000
+1.39036125000E+008, +9.31822782771E-001, +0.00000000000E+000
+1.40910937500E+008, +9.24164234744E-001, +0.00000000000E+000
+1.42785750000E+008, +9.15120145445E-001, +0.00000000000E+000
+1.44660562500E+008, +9.08455340819E-001, +0.00000000000E+000
+1.46535375000E+008, +8.99043585522E-001, +0.00000000000E+000
+1.48410187500E+008, +8.90168495401E-001, +0.00000000000E+000
+1.50285000000E+008, +8.79713497146E-001, +0.00000000000E+000
+1.52159812500E+008, +8.70597570214E-001, +0.00000000000E+000
+1.54034625000E+008, +8.61234103564E-001, +0.00000000000E+000
+1.55909437500E+008, +8.53896205915E-001, +0.00000000000E+000
+1.57784250000E+008, +8.45993754793E-001, +0.00000000000E+000
+1.59659062500E+008, +8.40355671541E-001, +0.00000000000E+000
+1.61533875000E+008, +8.32821564304E-001, +0.00000000000E+000
+1.63408687500E+008, +8.26743185985E-001, +0.00000000000E+000
+1.65283500000E+008, +8.20310785409E-001, +0.00000000000E+000
+1.67158312500E+008, +8.13268491096E-001, +0.00000000000E+000
+1.69033125000E+008, +8.05947967938E-001, +0.00000000000E+000
+1.70907937500E+008, +7.98745757748E-001, +0.00000000000E+000
+1.72782750000E+008, +7.90777836493E-001, +0.00000000000E+000
+1.74657562500E+008, +7.83029387635E-001, +0.00000000000E+000
+1.76532375000E+008, +7.76409417973E-001, +0.00000000000E+000
+1.78407187500E+008, +7.70288128513E-001, +0.00000000000E+000
+1.80282000000E+008, +7.62865850898E-001, +0.00000000000E+000
+1.82156812500E+008, +7.53284425728E-001, +0.00000000000E+000
+1.84031625000E+008, +7.43473281568E-001, +0.00000000000E+000
+1.85906437500E+008, +7.36764070326E-001, +0.00000000000E+000
+1.87781250000E+008, +7.28514863981E-001, +0.00000000000E+000
+1.89656062500E+008, +7.21748648367E-001, +0.00000000000E+000
+1.91530875000E+008, +7.14027898877E-001, +0.00000000000E+000
+1.93405687500E+008, +7.06761393060E-001, +0.00000000000E+000
+1.95280500000E+008, +7.00666158158E-001, +0.00000000000E+000
+1.97155312500E+008, +6.95705323484E-001, +0.00000000000E+000
+1.99030125000E+008, +6.87510546105E-001, +0.00000000000E+000
+2.00904937500E+008, +6.81477583364E-001, +0.00000000000E+000
+2.02779750000E+008, +6.73818220048E-001, +0.00000000000E+000
+2.04654562500E+008, +6.66428541924E-001, +0.00000000000E+000
+2.06529375000E+008, +6.58446654423E-001, +0.00000000000E+000
+2.08404187500E+008, +6.50008132602E-001, +0.00000000000E+000
+2.10279000000E+008, +6.41080181322E-001, +0.00000000000E+000
+2.12153812500E+008, +6.33338398956E-001, +0.00000000000E+000
+2.14028625000E+008, +6.24810742559E-001, +0.00000000000E+000
+2.15903437500E+008, +6.19604055568E-001, +0.00000000000E+000
+2.17778250000E+008, +6.13898419784E-001, +0.00000000000E+000
+2.19653062500E+008, +6.10329972309E-001, +0.00000000000E+000
+2.21527875000E+008, +6.06414336982E-001, +0.00000000000E+000
+2.23402687500E+008, +6.02400528012E-001, +0.00000000000E+000
+2.25277500000E+008, +5.96563551877E-001, +0.00000000000E+000
+2.27152312500E+008, +5.94602366893E-001, +0.00000000000E+000
+2.29027125000E+008, +5.91553717055E-001, +0.00000000000E+000
+2.30901937500E+008, +5.89159614865E-001, +0.00000000000E+000
+2.32776750000E+008, +5.83367609394E-001, +0.00000000000E+000
+2.34651562500E+008, +5.79414905863E-001, +0.00000000000E+000
+2.36526375000E+008, +5.74855570831E-001, +0.00000000000E+000
+2.38401187500E+008, +5.72929191959E-001, +0.00000000000E+000
+2.40276000000E+008, +5.68416432234E-001, +0.00000000000E+000
+2.42150812500E+008, +5.67010080817E-001, +0.00000000000E+000
+2.44025625000E+008, +5.62284321396E-001, +0.00000000000E+000
+2.45900437500E+008, +5.62473027792E-001, +0.00000000000E+000
+2.47775250000E+008, +5.58862977923E-001, +0.00000000000E+000
+2.49650062500E+008, +5.56817884057E-001, +0.00000000000E+000
+2.51524875000E+008, +5.53407692687E-001, +0.00000000000E+000
+2.53399687500E+008, +5.52752032692E-001, +0.00000000000E+000
+2.55274500000E+008, +5.51403523226E-001, +0.00000000000E+000
+2.57149312500E+008, +5.51064369014E-001, +0.00000000000E+000
+2.59024125000E+008, +5.50941718329E-001, +0.00000000000E+000
+2.60898937500E+008, +5.51645986387E-001, +0.00000000000E+000
+2.62773750000E+008, +5.49847542547E-001, +0.00000000000E+000
+2.64648562500E+008, +5.50928518289E-001, +0.00000000000E+000
+2.66523375000E+008, +5.46919492891E-001, +0.00000000000E+000
+2.68398187500E+008, +5.48192121559E-001, +0.00000000000E+000
+2.70273000000E+008, +5.46223075353E-001, +0.00000000000E+000
+2.72147812500E+008, +5.47353042405E-001, +0.00000000000E+000
+2.74022625000E+008, +5.46584694667E-001, +0.00000000000E+000
+2.75897437500E+008, +5.49060498494E-001, +0.00000000000E+000
+2.77772250000E+008, +5.49576364981E-001, +0.00000000000E+000
+2.79647062500E+008, +5.53413428176E-001, +0.00000000000E+000
+2.81521875000E+008, +5.56230908469E-001, +0.00000000000E+000
+2.83396687500E+008, +5.60066170385E-001, +0.00000000000E+000
+2.85271500000E+008, +5.60497716621E-001, +0.00000000000E+000
+2.87146312500E+008, +5.64664642147E-001, +0.00000000000E+000
+2.89021125000E+008, +5.67281052061E-001, +0.00000000000E+000
+2.90895937500E+008, +5.70780430008E-001, +0.00000000000E+000
+2.92770750000E+008, +5.72429709768E-001, +0.00000000000E+000
+2.94645562500E+008, +5.78009890006E-001, +0.00000000000E+000
+2.96520375000E+008, +5.80297166700E-001, +0.00000000000E+000
+2.98395187500E+008, +5.86009657319E-001, +0.00000000000E+000
+3.00270000000E+008, +5.89211599503E-001, +0.00000000000E+000
+3.02144812500E+008, +5.92888626006E-001, +0.00000000000E+000
+3.04019625000E+008, +5.97275069787E-001, +0.00000000000E+000
+3.05894437500E+008, +6.01124176569E-001, +0.00000000000E+000
+3.07769250000E+008, +6.05763423952E-001, +0.00000000000E+000
+3.09644062500E+008, +6.13267652416E-001, +0.00000000000E+000
+3.11518875000E+008, +6.15840073144E-001, +0.00000000000E+000
+3.13393687500E+008, +6.24188255892E-001, +0.00000000000E+000
+3.15268500000E+008, +6.29440595793E-001, +0.00000000000E+000
+3.17143312500E+008, +6.37010512123E-001, +0.00000000000E+000
+3.19018125000E+008, +6.43539627485E-001, +0.00000000000E+000
+3.20892937500E+008, +6.49737146350E-001, +0.00000000000E+000
+3.22767750000E+008, +6.54511081465E-001, +0.00000000000E+000
+3.24642562500E+008, +6.62110142602E-001, +0.00000000000E+000
+3.26517375000E+008, +6.67838944082E-001, +0.00000000000E+000
+3.28392187500E+008, +6.73658020052E-001, +0.00000000000E+000
+3.30267000000E+008, +6.80159687741E-001, +0.00000000000E+000
+3.32141812500E+008, +6.88474552108E-001, +0.00000000000E+000
+3.34016625000E+008, +6.95246773467E-001, +0.00000000000E+000
+3.35891437500E+008, +7.02458997588E-001, +0.00000000000E+000
+3.37766250000E+008, +7.10242156474E-001, +0.00000000000E+000
+3.39641062500E+008, +7.18749841773E-001, +0.00000000000E+000
+3.41515875000E+008, +7.26155290483E-001, +0.00000000000E+000
+3.43390687500E+008, +7.35957490862E-001, +0.00000000000E+000
+3.45265500000E+008, +7.45139404535E-001, +0.00000000000E+000
+3.47140312500E+008, +7.55176498604E-001, +0.00000000000E+000
+3.49015125000E+008, +7.64820556242E-001, +0.00000000000E+000
+3.50889937500E+008, +7.75780498065E-001, +0.00000000000E+000
+3.52764750000E+008, +7.87138374316E-001, +0.00000000000E+000
+3.54639562500E+008, +7.97449400945E-001, +0.00000000000E+000
+3.56514375000E+008, +8.07904720612E-001, +0.00000000000E+000
+3.58389187500E+008, +8.20043946960E-001, +0.00000000000E+000
+3.60264000000E+008, +8.31235372852E-001, +0.00000000000E+000
+3.62138812500E+008, +8.42461377163E-001, +0.00000000000E+000
+3.64013625000E+008, +8.52990885112E-001, +0.00000000000E+000
+3.65888437500E+008, +8.63426569379E-001, +0.00000000000E+000
+3.67763250000E+008, +8.74699201682E-001, +0.00000000000E+000
+3.69638062500E+008, +8.87132721441E-001, +0.00000000000E+000
+3.71512875000E+008, +8.98492722925E-001, +0.00000000000E+000
+3.73387687500E+008, +9.09231776133E-001, +0.00000000000E+000
+3.75262500000E+008, +9.22371458052E-001, +0.00000000000E+000
+3.77137312500E+008, +9.36438280225E-001, +0.00000000000E+000
+3.79012125000E+008, +9.49188766148E-001, +0.00000000000E+000
+3.80886937500E+008, +9.62343700601E-001, +0.00000000000E+000
+3.82761750000E+008, +9.75648463337E-001, +0.00000000000E+000
+3.84636562500E+008, +9.88702483339E-001, +0.00000000000E+000
+3.86511375000E+008, +1.00212665384E+000, +0.00000000000E+000
+3.88386187500E+008, +1.01605771661E+000, +0.00000000000E+000
+3.90261000000E+008, +1.02856977188E+000, +0.00000000000E+000
+3.92135812500E+008, +1.04245536431E+000, +0.00000000000E+000
+3.94010625000E+008, +1.05468781492E+000, +0.00000000000E+000
+3.95885437500E+008, +1.06944622826E+000, +0.00000000000E+000
+3.97760250000E+008, +1.08236594809E+000, +0.00000000000E+000
+3.99635062500E+008, +1.09696278618E+000, +0.00000000000E+000
+4.01509875000E+008, +1.11072692462E+000, +0.00000000000E+000
+4.03384687500E+008, +1.12468518682E+000, +0.00000000000E+000
+4.05259500000E+008, +1.13666306491E+000, +0.00000000000E+000
+4.07134312500E+008, +1.15088577258E+000, +0.00000000000E+000
+4.09009125000E+008, +1.16478310478E+000, +0.00000000000E+000
+4.10883937500E+008, +1.18000634102E+000, +0.00000000000E+000
+4.12758750000E+008, +1.19533146402E+000, +0.00000000000E+000
+4.14633562500E+008, +1.21192480037E+000, +0.00000000000E+000
+4.16508375000E+008, +1.22592672973E+000, +0.00000000000E+000
+4.18383187500E+008, +1.24206204874E+000, +0.00000000000E+000
+4.20258000000E+008, +1.25815958330E+000, +0.00000000000E+000
+4.22132812500E+008, +1.27446525763E+000, +0.00000000000E+000
+4.24007625000E+008, +1.28871009137E+000, +0.00000000000E+000
+4.25882437500E+008, +1.30402359023E+000, +0.00000000000E+000
+4.27757250000E+008, +1.31957548093E+000, +0.00000000000E+000
+4.29632062500E+008, +1.33556250879E+000, +0.00000000000E+000
+4.31506875000E+008, +1.35104180990E+000, +0.00000000000E+000
+4.33381687500E+008, +1.36715392279E+000, +0.00000000000E+000
+4.35256500000E+008, +1.38168379735E+000, +0.00000000000E+000
+4.37131312500E+008, +1.40022572979E+000, +0.00000000000E+000
+4.39006125000E+008, +1.41605283725E+000, +0.00000000000E+000
+4.40880937500E+008, +1.43214731144E+000, +0.00000000000E+000
+4.42755750000E+008, +1.44719324142E+000, +0.00000000000E+000
+4.44630562500E+008, +1.46570417899E+000, +0.00000000000E+000
+4.46505375000E+008, +1.47907314326E+000, +0.00000000000E+000
+4.48380187500E+008, +1.49650138078E+000, +0.00000000000E+000
+4.50255000000E+008, +1.51141351158E+000, +0.00000000000E+000
+4.52129812500E+008, +1.52995645755E+000, +0.00000000000E+000
+4.54004625000E+008, +1.54461590341E+000, +0.00000000000E+000
+4.55879437500E+008, +1.56234764437E+000, +0.00000000000E+000
+4.57754250000E+008, +1.57707235319E+000, +0.00000000000E+000
+4.59629062500E+008, +1.59423610363E+000, +0.00000000000E+000
+4.61503875000E+008, +1.60899291576E+000, +0.00000000000E+000
+4.63378687500E+008, +1.62872731079E+000, +0.00000000000E+000
+4.65253500000E+008, +1.64537865449E+000, +0.00000000000E+000
+4.67128312500E+008, +1.66408868073E+000, +0.00000000000E+000
+4.69003125000E+008, +1.67831988022E+000, +0.00000000000E+000
+4.70877937500E+008, +1.69661959027E+000, +0.00000000000E+000
+4.72752750000E+008, +1.71450859599E+000, +0.00000000000E+000
+4.74627562500E+008, +1.73220745892E+000, +0.00000000000E+000
+4.76502375000E+008, +1.74864664928E+000, +0.00000000000E+000
+4.78377187500E+008, +1.76555107821E+000, +0.00000000000E+000
+4.80252000000E+008, +1.78389186774E+000, +0.00000000000E+000
+4.82126812500E+008, +1.80211024972E+000, +0.00000000000E+000
+4.84001625000E+008, +1.81841287652E+000, +0.00000000000E+000
+4.85876437500E+008, +1.83548967467E+000, +0.00000000000E+000
+4.87751250000E+008, +1.85377383759E+000, +0.00000000000E+000
+4.89626062500E+008, +1.87287991015E+000, +0.00000000000E+000
+4.91500875000E+008, +1.89058412932E+000, +0.00000000000E+000
+4.93375687500E+008, +1.90798489833E+000, +0.00000000000E+000
+4.95250500000E+008, +1.92678279818E+000, +0.00000000000E+000
+4.97125312500E+008, +1.94538193012E+000, +0.00000000000E+000
+4.99000125000E+008, +1.96400223164E+000, +0.00000000000E+000
+5.00874937500E+008, +1.98322092128E+000, +0.00000000000E+000
+5.02749750000E+008, +2.00066841827E+000, +0.00000000000E+000
+5.04624562500E+008, +2.01940298552E+000, +0.00000000000E+000
+5.06499375000E+008, +2.03711812973E+000, +0.00000000000E+000
+5.08374187500E+008, +2.05544619262E+000, +0.00000000000E+000
+5.10249000000E+008, +2.07051087211E+000, +0.00000000000E+000
+5.12123812500E+008, +2.08781769606E+000, +0.00000000000E+000
+5.13998625000E+008, +2.10377424834E+000, +0.00000000000E+000
+5.15873437500E+008, +2.12206399816E+000, +0.00000000000E+000
+5.17748250000E+008, +2.13916183191E+000, +0.00000000000E+000
+5.19623062500E+008, +2.15582975880E+000, +0.00000000000E+000
+5.21497875000E+008, +2.17486354979E+000, +0.00000000000E+000
+5.23372687500E+008, +2.19225643077E+000, +0.00000000000E+000
+5.25247500000E+008, +2.21149378610E+000, +0.00000000000E+000
+5.27122312500E+008, +2.22934916186E+000, +0.00000000000E+000
+5.28997125000E+008, +2.24591184592E+000, +0.00000000000E+000
+5.30871937500E+008, +2.26295175630E+000, +0.00000000000E+000
+5.32746750000E+008, +2.28104195704E+000, +0.00000000000E+000
+5.34621562500E+008, +2.29700536034E+000, +0.00000000000E+000
+5.36496375000E+008, +2.31266930299E+000, +0.00000000000E+000
+5.38371187500E+008, +2.32694363059E+000, +0.00000000000E+000
+5.40246000000E+008, +2.34488812254E+000, +0.00000000000E+000
+5.42120812500E+008, +2.36014201571E+000, +0.00000000000E+000
+5.43995625000E+008, +2.37612120101E+000, +0.00000000000E+000
+5.45870437500E+008, +2.39136760648E+000, +0.00000000000E+000
+5.47745250000E+008, +2.40810051173E+000, +0.00000000000E+000
+5.49620062500E+008, +2.42281217475E+000, +0.00000000000E+000
+5.51494875000E+008, +2.43918956040E+000, +0.00000000000E+000
+5.53369687500E+008, +2.45470651006E+000, +0.00000000000E+000
+5.55244500000E+008, +2.47071355359E+000, +0.00000000000E+000
+5.57119312500E+008, +2.48765218774E+000, +0.00000000000E+000
+5.58994125000E+008, +2.50362940432E+000, +0.00000000000E+000
+5.60868937500E+008, +2.52005271920E+000, +0.00000000000E+000
+5.62743750000E+008, +2.53689061308E+000, +0.00000000000E+000
+5.64618562500E+008, +2.55251957018E+000, +0.00000000000E+000
+5.66493375000E+008, +2.56873520487E+000, +0.00000000000E+000
+5.68368187500E+008, +2.58418831295E+000, +0.00000000000E+000
+5.70243000000E+008, +2.59910624947E+000, +0.00000000000E+000
+5.72117812500E+008, +2.61316809747E+000, +0.00000000000E+000
+5.73992625000E+008, +2.62768180923E+000, +0.00000000000E+000
+5.75867437500E+008, +2.64486165754E+000, +0.00000000000E+000
+5.77742250000E+008, +2.66061637081E+000, +0.00000000000E+000
+5.79617062500E+008, +2.67630625893E+000, +0.00000000000E+000
+5.81491875000E+008, +2.69314403885E+000, +0.00000000000E+000
+5.83366687500E+008, +2.70916549192E+000, +0.00000000000E+000
+5.85241500000E+008, +2.72462624888E+000, +0.00000000000E+000
+5.87116312500E+008, +2.74045157295E+000, +0.00000000000E+000
+5.88991125000E+008, +2.75669329960E+000, +0.00000000000E+000
+5.90865937500E+008, +2.77360422002E+000, +0.00000000000E+000
