"# Channel 2"
"# Trace 1"
Frequency, Formatted Data, Formatted Data
+3.00000000000E+005, +1.08955092453E+002, +0.00000000000E+000
+2.17481250000E+006, +1.01234490356E+002, +0.00000000000E+000
+4.04962500000E+006, +9.30545993074E+001, +0.00000000000E+000
+5.92443750000E+006, +8.70910308780E+001, +0.00000000000E+000
+7.79925000000E+006, +8.16982137639E+001, +0.00000000000E+000
+9.67406250000E+006, +7.63863258914E+001, +0.00000000000E+000
+1.15488750000E+007, +7.14145894281E+001, +0.00000000000E+000
+1.34236875000E+007, +6.65435814907E+001, +0.00000000000E+000
+1.52985000000E+007, +6.17575061025E+001, +0.00000000000E+000
+1.71733125000E+007, +5.70378846207E+001, +0.00000000000E+000
+1.90481250000E+007, +5.23697049636E+001, +0.00000000000E+000
+2.09229375000E+007, +4.77319780557E+001, +0.00000000000E+000
+2.27977500000E+007, +4.31435572554E+001, +0.00000000000E+000
+2.46725625000E+007, +3.81331670149E+001, +0.00000000000E+000
+2.65473750000E+007, +3.30846484457E+001, +0.00000000000E+000
+2.84221875000E+007, +2.85188563455E+001, +0.00000000000E+000
+3.02970000000E+007, +2.39464109084E+001, +0.00000000000E+000
+3.21718125000E+007, +1.95256451102E+001, +0.00000000000E+000
+3.40466250000E+007, +1.49467858789E+001, +0.00000000000E+000
+3.59214375000E+007, +1.05251882364E+001, +0.00000000000E+000
+3.77962500000E+007, +6.03330324384E+000, +0.00000000000E+000
+3.96710625000E+007, +1.58649788353E+000, +0.00000000000E+000
+4.15458750000E+007, -2.84135303194E+000, +0.00000000000E+000
+4.34206875000E+007, -7.23149594963E+000, +0.00000000000E+000
+4.52955000000E+007, -1.16674636371E+001, +0.00000000000E+000
+4.71703125000E+007, -1.60510650607E+001, +0.00000000000E+000
+4.90451250000E+007, -2.04578746142E+001, +0.00000000000E+000
+5.09199375000E+007, -2.48298358924E+001, +0.00000000000E+000
+5.27947500000E+007, -2.92082313811E+001, +0.00000000000E+000
+5.46695625000E+007, -3.35719668980E+001, +0.00000000000E+000
+5.65443750000E+007, -3.79399487274E+001, +0.00000000000E+000
+5.84191875000E+007, -4.22806915087E+001, +0.00000000000E+000
+6.02940000000E+007, -4.66208942397E+001, +0.00000000000E+000
+6.21688125000E+007, -5.09609454042E+001, +0.00000000000E+000
+6.40436250000E+007, -5.52888870459E+001, +0.00000000000E+000
+6.59184375000E+007, -5.96020099297E+001, +0.00000000000E+000
+6.77932500000E+007, -6.39089768920E+001, +0.00000000000E+000
+6.96680625000E+007, -6.82316163258E+001, +0.00000000000E+000
+7.15428750000E+007, -7.25254971751E+001, +0.00000000000E+000
+7.34176875000E+007, -7.68324678772E+001, +0.00000000000E+000
+7.52925000000E+007, -8.11195247409E+001, +0.00000000000E+000
+7.71673125000E+007, -8.54006800575E+001, +0.00000000000E+000
+7.90421250000E+007, -8.96706226199E+001, +0.00000000000E+000
+8.09169375000E+007, -9.39498759100E+001, +0.00000000000E+000
+8.27917500000E+007, -9.81981970267E+001, +0.00000000000E+000
+8.46665625000E+007, -1.02471341381E+002, +0.00000000000E+000
+8.65413750000E+007, -1.06721820040E+002, +0.00000000000E+000
+8.84161875000E+007, -1.10961107712E+002, +0.00000000000E+000
+9.02910000000E+007, -1.15192338048E+002, +0.00000000000E+000
+9.21658125000E+007, -1.19442278180E+002, +0.00000000000E+000
+9.40406250000E+007, -1.23659735811E+002, +0.00000000000E+000
+9.59154375000E+007, -1.27884484216E+002, +0.00000000000E+000
+9.77902500000E+007, -1.32091078308E+002, +0.00000000000E+000
+9.96650625000E+007, -1.36299534218E+002, +0.00000000000E+000
+1.01539875000E+008, -1.40507282442E+002, +0.00000000000E+000
+1.03414687500E+008, -1.44693633774E+002, +0.00000000000E+000
+1.05289500000E+008, -1.48877169298E+002, +0.00000000000E+000
+1.07164312500E+008, -1.53054886982E+002, +0.00000000000E+000
+1.09039125000E+008, -1.57236851089E+002, +0.00000000000E+000
+1.10913937500E+008, -1.61409328953E+002, +0.00000000000E+000
+1.12788750000E+008, -1.65580878264E+002, +0.00000000000E+000
+1.14663562500E+008, -1.69747152359E+002, +0.00000000000E+000
+1.16538375000E+008, -1.73899497954E+002, +0.00000000000E+000
+1.18413187500E+008, -1.78045483859E+002, +0.00000000000E+000
+1.20288000000E+008, +1.77806688912E+002, +0.00000000000E+000
+1.22162812500E+008, +1.73669582003E+002, +0.00000000000E+000
+1.24037625000E+008, +1.69530307100E+002, +0.00000000000E+000
+1.25912437500E+008, +1.65407027409E+002, +0.00000000000E+000
+1.27787250000E+008, +1.61291516883E+002, +0.00000000000E+000
+1.29662062500E+008, +1.57166332543E+002, +0.00000000000E+000
+1.31536875000E+008, +1.53057865931E+002, +0.00000000000E+000
+1.33411687500E+008, +1.48965806921E+002, +0.00000000000E+000
+1.35286500000E+008, +1.44856160331E+002, +0.00000000000E+000
+1.37161312500E+008, +1.40762077002E+002, +0.00000000000E+000
+1.39036125000E+008, +1.36667320935E+002, +0.00000000000E+000
+1.40910937500E+008, +1.32591429696E+002, +0.00000000000E+000
+1.42785750000E+008, +1.28511035182E+002, +0.00000000000E+000
+1.44660562500E+008, +1.24432205190E+002, +0.00000000000E+000
+1.46535375000E+008, +1.20354113730E+002, +0.00000000000E+000
+1.48410187500E+008, +1.16299124471E+002, +0.00000000000E+000
+1.50285000000E+008, +1.12226328752E+002, +0.00000000000E+000
+1.52159812500E+008, +1.08160939676E+002, +0.00000000000E+000
+1.54034625000E+008, +1.04099936503E+002, +0.00000000000E+000
+1.55909437500E+008, +1.00055578636E+002, +0.00000000000E+000
+1.57784250000E+008, +9.60114521646E+001, +0.00000000000E+000
+1.59659062500E+008, +9.19768073405E+001, +0.00000000000E+000
+1.61533875000E+008, +8.79380861421E+001, +0.00000000000E+000
+1.63408687500E+008, +8.39107626796E+001, +0.00000000000E+000
+1.65283500000E+008, +7.98715839806E+001, +0.00000000000E+000
+1.67158312500E+008, +7.58542694211E+001, +0.00000000000E+000
+1.69033125000E+008, +7.18286403519E+001, +0.00000000000E+000
+1.70907937500E+008, +6.78166056063E+001, +0.00000000000E+000
+1.72782750000E+008, +6.37962064550E+001, +0.00000000000E+000
+1.74657562500E+008, +5.97834324631E+001, +0.00000000000E+000
+1.76532375000E+008, +5.57662727472E+001, +0.00000000000E+000
+1.78407187500E+008, +5.17537630374E+001, +0.00000000000E+000
+1.80282000000E+008, +4.77448224999E+001, +0.00000000000E+000
+1.82156812500E+008, +4.37453210696E+001, +0.00000000000E+000
+1.84031625000E+008, +3.97450924715E+001, +0.00000000000E+000
+1.85906437500E+008, +3.57444777475E+001, +0.00000000000E+000
+1.87781250000E+008, +3.17390557587E+001, +0.00000000000E+000
+1.89656062500E+008, +2.77411908539E+001, +0.00000000000E+000
+1.91530875000E+008, +2.37480283879E+001, +0.00000000000E+000
+1.93405687500E+008, +1.97551550654E+001, +0.00000000000E+000
+1.95280500000E+008, +1.57614589761E+001, +0.00000000000E+000
+1.97155312500E+008, +1.17608195313E+001, +0.00000000000E+000
+1.99030125000E+008, +7.77941532411E+000, +0.00000000000E+000
+2.00904937500E+008, +3.77877497296E+000, +0.00000000000E+000
+2.02779750000E+008, -2.12407287627E-001, +0.00000000000E+000
+2.04654562500E+008, -4.21096358225E+000, +0.00000000000E+000
+2.06529375000E+008, -8.19620850239E+000, +0.00000000000E+000
+2.08404187500E+008, -1.21844407900E+001, +0.00000000000E+000
+2.10279000000E+008, -1.61646270458E+001, +0.00000000000E+000
+2.12153812500E+008, -2.01541296791E+001, +0.00000000000E+000
+2.14028625000E+008, -2.41347268977E+001, +0.00000000000E+000
+2.15903437500E+008, -2.81224474455E+001, +0.00000000000E+000
+2.17778250000E+008, -3.21091024882E+001, +0.00000000000E+000
+2.19653062500E+008, -3.60890967770E+001, +0.00000000000E+000
+2.21527875000E+008, -4.00676560728E+001, +0.00000000000E+000
+2.23402687500E+008, -4.40482366562E+001, +0.00000000000E+000
+2.25277500000E+008, -4.80258693959E+001, +0.00000000000E+000
+2.27152312500E+008, -5.20125632623E+001, +0.00000000000E+000
+2.29027125000E+008, -5.60020113647E+001, +0.00000000000E+000
+2.30901937500E+008, -5.99940910935E+001, +0.00000000000E+000
+2.32776750000E+008, -6.39734577972E+001, +0.00000000000E+000
+2.34651562500E+008, -6.79604632966E+001, +0.00000000000E+000
+2.36526375000E+008, -7.19490790847E+001, +0.00000000000E+000
+2.38401187500E+008, -7.59387249414E+001, +0.00000000000E+000
+2.40276000000E+008, -7.99275296275E+001, +0.00000000000E+000
+2.42150812500E+008, -8.39115767202E+001, +0.00000000000E+000
+2.44025625000E+008, -8.78929307427E+001, +0.00000000000E+000
+2.45900437500E+008, -9.18886892747E+001, +0.00000000000E+000
+2.47775250000E+008, -9.58738933441E+001, +0.00000000000E+000
+2.49650062500E+008, -9.98575911898E+001, +0.00000000000E+000
+2.51524875000E+008, -1.03848585605E+002, +0.00000000000E+000
+2.53399687500E+008, -1.07847777504E+002, +0.00000000000E+000
+2.55274500000E+008, -1.11849105233E+002, +0.00000000000E+000
+2.57149312500E+008, -1.15864361159E+002, +0.00000000000E+000
+2.59024125000E+008, -1.19876154004E+002, +0.00000000000E+000
+2.60898937500E+008, -1.23882397927E+002, +0.00000000000E+000
+2.62773750000E+008, -1.27889646167E+002, +0.00000000000E+000
+2.64648562500E+008, -1.31914330715E+002, +0.00000000000E+000
+2.66523375000E+008, -1.35945742209E+002, +0.00000000000E+000
+2.68398187500E+008, -1.39969316520E+002, +0.00000000000E+000
+2.70273000000E+008, -1.44007236458E+002, +0.00000000000E+000
+2.72147812500E+008, -1.48040734444E+002, +0.00000000000E+000
+2.74022625000E+008, -1.52091214616E+002, +0.00000000000E+000
+2.75897437500E+008, -1.56128094155E+002, +0.00000000000E+000
+2.77772250000E+008, -1.60176089783E+002, +0.00000000000E+000
+2.79647062500E+008, -1.64221242457E+002, +0.00000000000E+000
+2.81521875000E+008, -1.68283434538E+002, +0.00000000000E+000
+2.83396687500E+008, -1.72340257704E+002, +0.00000000000E+000
+2.85271500000E+008, -1.76421497698E+002, +0.00000000000E+000
+2.87146312500E+008, +1.79509510109E+002, +0.00000000000E+000
+2.89021125000E+008, +1.75418803002E+002, +0.00000000000E+000
+2.90895937500E+008, +1.71336553755E+002, +0.00000000000E+000
+2.92770750000E+008, +1.67233615354E+002, +0.00000000000E+000
+2.94645562500E+008, +1.63137073118E+002, +0.00000000000E+000
+2.96520375000E+008, +1.59026950015E+002, +0.00000000000E+000
+2.98395187500E+008, +1.54922725390E+002, +0.00000000000E+000
+3.00270000000E+008, +1.50812054522E+002, +0.00000000000E+000
+3.02144812500E+008, +1.46695560156E+002, +0.00000000000E+000
+3.04019625000E+008, +1.42575799393E+002, +0.00000000000E+000
+3.05894437500E+008, +1.38451874059E+002, +0.00000000000E+000
+3.07769250000E+008, +1.34302489519E+002, +0.00000000000E+000
+3.09644062500E+008, +1.30159867862E+002, +0.00000000000E+000
+3.11518875000E+008, +1.26026313414E+002, +0.00000000000E+000
+3.13393687500E+008, +1.21874530519E+002, +0.00000000000E+000
+3.15268500000E+008, +1.17716659221E+002, +0.00000000000E+000
+3.17143312500E+008, +1.13549906040E+002, +0.00000000000E+000
+3.19018125000E+008, +1.09381181578E+002, +0.00000000000E+000
+3.20892937500E+008, +1.05212735709E+002, +0.00000000000E+000
+3.22767750000E+008, +1.01033947464E+002, +0.00000000000E+000
+3.24642562500E+008, +9.68411144258E+001, +0.00000000000E+000
+3.26517375000E+008, +9.26325330712E+001, +0.00000000000E+000
+3.28392187500E+008, +8.84239519572E+001, +0.00000000000E+000
+3.30267000000E+008, +8.42132546835E+001, +0.00000000000E+000
+3.32141812500E+008, +7.99965420701E+001, +0.00000000000E+000
+3.34016625000E+008, +7.57763581751E+001, +0.00000000000E+000
+3.35891437500E+008, +7.15310591184E+001, +0.00000000000E+000
+3.37766250000E+008, +6.72930527768E+001, +0.00000000000E+000
+3.39641062500E+008, +6.30469764249E+001, +0.00000000000E+000
+3.41515875000E+008, +5.87977574884E+001, +0.00000000000E+000
+3.43390687500E+008, +5.45250172587E+001, +0.00000000000E+000
+3.45265500000E+008, +5.02622599006E+001, +0.00000000000E+000
+3.47140312500E+008, +4.59689021933E+001, +0.00000000000E+000
+3.49015125000E+008, +4.16880365100E+001, +0.00000000000E+000
+3.50889937500E+008, +3.73962904799E+001, +0.00000000000E+000
+3.52764750000E+008, +3.31156913069E+001, +0.00000000000E+000
+3.54639562500E+008, +2.88163131577E+001, +0.00000000000E+000
+3.56514375000E+008, +2.45109302935E+001, +0.00000000000E+000
+3.58389187500E+008, +2.01895869519E+001, +0.00000000000E+000
+3.60264000000E+008, +1.58811746324E+001, +0.00000000000E+000
+3.62138812500E+008, +1.15526089905E+001, +0.00000000000E+000
+3.64013625000E+008, +7.23242323317E+000, +0.00000000000E+000
+3.65888437500E+008, +2.89350445374E+000, +0.00000000000E+000
+3.67763250000E+008, -1.44303982321E+000, +0.00000000000E+000
+3.69638062500E+008, -5.79540070537E+000, +0.00000000000E+000
+3.71512875000E+008, -1.01316222936E+001, +0.00000000000E+000
+3.73387687500E+008, -1.44802646158E+001, +0.00000000000E+000
+3.75262500000E+008, -1.88251556343E+001, +0.00000000000E+000
+3.77137312500E+008, -2.31823818212E+001, +0.00000000000E+000
+3.79012125000E+008, -2.75292081834E+001, +0.00000000000E+000
+3.80886937500E+008, -3.18942096027E+001, +0.00000000000E+000
+3.82761750000E+008, -3.62475049363E+001, +0.00000000000E+000
+3.84636562500E+008, -4.06224654539E+001, +0.00000000000E+000
+3.86511375000E+008, -4.49774616351E+001, +0.00000000000E+000
+3.88386187500E+008, -4.93423614262E+001, +0.00000000000E+000
+3.90261000000E+008, -5.37045817234E+001, +0.00000000000E+000
+3.92135812500E+008, -5.80695046355E+001, +0.00000000000E+000
+3.94010625000E+008, -6.24358863654E+001, +0.00000000000E+000
+3.95885437500E+008, -6.68002418450E+001, +0.00000000000E+000
+3.97760250000E+008, -7.11699079786E+001, +0.00000000000E+000
+3.99635062500E+008, -7.55500854308E+001, +0.00000000000E+000
+4.01509875000E+008, -7.99153219854E+001, +0.00000000000E+000
+4.03384687500E+008, -8.42808617108E+001, +0.00000000000E+000
+4.05259500000E+008, -8.86469933262E+001, +0.00000000000E+000
+4.07134312500E+008, -9.30132499682E+001, +0.00000000000E+000
+4.09009125000E+008, -9.73831759708E+001, +0.00000000000E+000
+4.10883937500E+008, -1.01741556744E+002, +0.00000000000E+000
+4.12758750000E+008, -1.06099430848E+002, +0.00000000000E+000
+4.14633562500E+008, -1.10452823479E+002, +0.00000000000E+000
+4.16508375000E+008, -1.14809642769E+002, +0.00000000000E+000
+4.18383187500E+008, -1.19156498562E+002, +0.00000000000E+000
+4.20258000000E+008, -1.23498866002E+002, +0.00000000000E+000
+4.22132812500E+008, -1.27831065998E+002, +0.00000000000E+000
+4.24007625000E+008, -1.32166102338E+002, +0.00000000000E+000
+4.25882437500E+008, -1.36496026893E+002, +0.00000000000E+000
+4.27757250000E+008, -1.40819324266E+002, +0.00000000000E+000
+4.29632062500E+008, -1.45130015445E+002, +0.00000000000E+000
+4.31506875000E+008, -1.49449740067E+002, +0.00000000000E+000
+4.33381687500E+008, -1.53756187270E+002, +0.00000000000E+000
+4.35256500000E+008, -1.58064736619E+002, +0.00000000000E+000
+4.37131312500E+008, -1.62361098804E+002, +0.00000000000E+000
+4.39006125000E+008, -1.66654989817E+002, +0.00000000000E+000
+4.40880937500E+008, -1.70928371014E+002, +0.00000000000E+000
+4.42755750000E+008, -1.75215860109E+002, +0.00000000000E+000
+4.44630562500E+008, -1.79488039107E+002, +0.00000000000E+000
+4.46505375000E+008, +1.76247769071E+002, +0.00000000000E+000
+4.48380187500E+008, +1.71990977182E+002, +0.00000000000E+000
+4.50255000000E+008, +1.67733498239E+002, +0.00000000000E+000
+4.52129812500E+008, +1.63485985973E+002, +0.00000000000E+000
+4.54004625000E+008, +1.59241672487E+002, +0.00000000000E+000
+4.55879437500E+008, +1.55011114781E+002, +0.00000000000E+000
+4.57754250000E+008, +1.50781857211E+002, +0.00000000000E+000
+4.59629062500E+008, +1.46559192365E+002, +0.00000000000E+000
+4.61503875000E+008, +1.42345108420E+002, +0.00000000000E+000
+4.63378687500E+008, +1.38148614071E+002, +0.00000000000E+000
+4.65253500000E+008, +1.33953295522E+002, +0.00000000000E+000
+4.67128312500E+008, +1.29758761596E+002, +0.00000000000E+000
+4.69003125000E+008, +1.25571833550E+002, +0.00000000000E+000
+4.70877937500E+008, +1.21389176081E+002, +0.00000000000E+000
+4.72752750000E+008, +1.17226334968E+002, +0.00000000000E+000
+4.74627562500E+008, +1.13068283406E+002, +0.00000000000E+000
+4.76502375000E+008, +1.08913863422E+002, +0.00000000000E+000
+4.78377187500E+008, +1.04780025228E+002, +0.00000000000E+000
+4.80252000000E+008, +1.00637013193E+002, +0.00000000000E+000
+4.82126812500E+008, +9.65067979545E+001, +0.00000000000E+000
+4.84001625000E+008, +9.23918373361E+001, +0.00000000000E+000
+4.85876437500E+008, +8.82706367314E+001, +0.00000000000E+000
+4.87751250000E+008, +8.41566124375E+001, +0.00000000000E+000
+4.89626062500E+008, +8.00607045392E+001, +0.00000000000E+000
+4.91500875000E+008, +7.59664855421E+001, +0.00000000000E+000
+4.93375687500E+008, +7.18785330966E+001, +0.00000000000E+000
+4.95250500000E+008, +6.77986146057E+001, +0.00000000000E+000
+4.97125312500E+008, +6.37330462684E+001, +0.00000000000E+000
+4.99000125000E+008, +5.96666392278E+001, +0.00000000000E+000
+5.00874937500E+008, +5.56126695107E+001, +0.00000000000E+000
+5.02749750000E+008, +5.15647510201E+001, +0.00000000000E+000
+5.04624562500E+008, +4.75328740114E+001, +0.00000000000E+000
+5.06499375000E+008, +4.35023194222E+001, +0.00000000000E+000
+5.08374187500E+008, +3.94793906117E+001, +0.00000000000E+000
+5.10249000000E+008, +3.54626977804E+001, +0.00000000000E+000
+5.12123812500E+008, +3.14570839859E+001, +0.00000000000E+000
+5.13998625000E+008, +2.74513959129E+001, +0.00000000000E+000
+5.15873437500E+008, +2.34532627584E+001, +0.00000000000E+000
+5.17748250000E+008, +1.94656904763E+001, +0.00000000000E+000
+5.19623062500E+008, +1.54788072138E+001, +0.00000000000E+000
+5.21497875000E+008, +1.14922385250E+001, +0.00000000000E+000
+5.23372687500E+008, +7.52045948956E+000, +0.00000000000E+000
+5.25247500000E+008, +3.55260190562E+000, +0.00000000000E+000
+5.27122312500E+008, -4.03809091055E-001, +0.00000000000E+000
+5.28997125000E+008, -4.35462195363E+000, +0.00000000000E+000
+5.30871937500E+008, -8.30206149519E+000, +0.00000000000E+000
+5.32746750000E+008, -1.22414263335E+001, +0.00000000000E+000
+5.34621562500E+008, -1.61598535743E+001, +0.00000000000E+000
+5.36496375000E+008, -2.00853485285E+001, +0.00000000000E+000
+5.38371187500E+008, -2.39981361432E+001, +0.00000000000E+000
+5.40246000000E+008, -2.79070388880E+001, +0.00000000000E+000
+5.42120812500E+008, -3.18104538786E+001, +0.00000000000E+000
+5.43995625000E+008, -3.57117672007E+001, +0.00000000000E+000
+5.45870437500E+008, -3.95969419172E+001, +0.00000000000E+000
+5.47745250000E+008, -4.34835753322E+001, +0.00000000000E+000
+5.49620062500E+008, -4.73591211278E+001, +0.00000000000E+000
+5.51494875000E+008, -5.12370260834E+001, +0.00000000000E+000
+5.53369687500E+008, -5.51074789929E+001, +0.00000000000E+000
+5.55244500000E+008, -5.89691262107E+001, +0.00000000000E+000
+5.57119312500E+008, -6.28335197688E+001, +0.00000000000E+000
+5.58994125000E+008, -6.66938532524E+001, +0.00000000000E+000
+5.60868937500E+008, -7.05394106623E+001, +0.00000000000E+000
+5.62743750000E+008, -7.43797090171E+001, +0.00000000000E+000
+5.64618562500E+008, -7.82207454232E+001, +0.00000000000E+000
+5.66493375000E+008, -8.20525959315E+001, +0.00000000000E+000
+5.68368187500E+008, -8.58814498863E+001, +0.00000000000E+000
+5.70243000000E+008, -8.96998682805E+001, +0.00000000000E+000
+5.72117812500E+008, -9.35209042431E+001, +0.00000000000E+000
+5.73992625000E+008, -9.73356260452E+001, +0.00000000000E+000
+5.75867437500E+008, -1.01145319963E+002, +0.00000000000E+000
+5.77742250000E+008, -1.04954252781E+002, +0.00000000000E+000
+5.79617062500E+008, -1.08756780599E+002, +0.00000000000E+000
+5.81491875000E+008, -1.12558806234E+002, +0.00000000000E+000
+5.83366687500E+008, -1.16359540152E+002, +0.00000000000E+000
+5.85241500000E+008, -1.20145150367E+002, +0.00000000000E+000
+5.87116312500E+008, -1.23937101385E+002, +0.00000000000E+000
+5.88991125000E+008, -1.27713095300E+002, +0.00000000000E+000
+5.90865937500E+008, -1.31500316140E+002, +0.00000000000E+000
