"# Channel 3"
"# Trace 1"
Frequency, Formatted Data, Formatted Data
+3.00000000000E+005, +6.92087544977E-009, +0.00000000000E+000
+2.17481250000E+006, +6.36878910589E-009, +0.00000000000E+000
+4.04962500000E+006, +5.88641739952E-009, +0.00000000000E+000
+5.92443750000E+006, +5.65097771449E-009, +0.00000000000E+000
+7.79925000000E+006, +5.49128620578E-009, +0.00000000000E+000
+9.67406250000E+006, +5.40243356508E-009, +0.00000000000E+000
+1.15488750000E+007, +5.34270448250E-009, +0.00000000000E+000
+1.34236875000E+007, +5.29627092934E-009, +0.00000000000E+000
+1.52985000000E+007, +5.26049178875E-009, +0.00000000000E+000
+1.71733125000E+007, +5.22863142429E-009, +0.00000000000E+000
+1.90481250000E+007, +5.20424859542E-009, +0.00000000000E+000
+2.09229375000E+007, +5.18408820066E-009, +0.00000000000E+000
+2.27977500000E+007, +5.16634098741E-009, +0.00000000000E+000
+2.46725625000E+007, +5.08838182992E-009, +0.00000000000E+000
+2.65473750000E+007, +5.00866305168E-009, +0.00000000000E+000
+2.84221875000E+007, +4.99797623744E-009, +0.00000000000E+000
+3.02970000000E+007, +4.99227432444E-009, +0.00000000000E+000
+3.21718125000E+007, +4.97849657403E-009, +0.00000000000E+000
+3.40466250000E+007, +4.97625598764E-009, +0.00000000000E+000
+3.59214375000E+007, +4.96488606058E-009, +0.00000000000E+000
+3.77962500000E+007, +4.96988717128E-009, +0.00000000000E+000
+3.96710625000E+007, +4.96334305234E-009, +0.00000000000E+000
+4.15458750000E+007, +4.96001498764E-009, +0.00000000000E+000
+4.34206875000E+007, +4.95326044667E-009, +0.00000000000E+000
+4.52955000000E+007, +4.95787915856E-009, +0.00000000000E+000
+4.71703125000E+007, +4.94223496453E-009, +0.00000000000E+000
+4.90451250000E+007, +4.94290873419E-009, +0.00000000000E+000
+5.09199375000E+007, +4.94001935424E-009, +0.00000000000E+000
+5.27947500000E+007, +4.93456159619E-009, +0.00000000000E+000
+5.46695625000E+007, +4.93120819403E-009, +0.00000000000E+000
+5.65443750000E+007, +4.92455796789E-009, +0.00000000000E+000
+5.84191875000E+007, +4.92020128365E-009, +0.00000000000E+000
+6.02940000000E+007, +4.92371248805E-009, +0.00000000000E+000
+6.21688125000E+007, +4.91403303989E-009, +0.00000000000E+000
+6.40436250000E+007, +4.91229400321E-009, +0.00000000000E+000
+6.59184375000E+007, +4.90648413189E-009, +0.00000000000E+000
+6.77932500000E+007, +4.90797905369E-009, +0.00000000000E+000
+6.96680625000E+007, +4.89703173117E-009, +0.00000000000E+000
+7.15428750000E+007, +4.89221203273E-009, +0.00000000000E+000
+7.34176875000E+007, +4.88825126748E-009, +0.00000000000E+000
+7.52925000000E+007, +4.88779028818E-009, +0.00000000000E+000
+7.71673125000E+007, +4.87921368794E-009, +0.00000000000E+000
+7.90421250000E+007, +4.87535774468E-009, +0.00000000000E+000
+8.09169375000E+007, +4.87313611473E-009, +0.00000000000E+000
+8.27917500000E+007, +4.86863668617E-009, +0.00000000000E+000
+8.46665625000E+007, +4.86316917047E-009, +0.00000000000E+000
+8.65413750000E+007, +4.86257541264E-009, +0.00000000000E+000
+8.84161875000E+007, +4.85409439570E-009, +0.00000000000E+000
+9.02910000000E+007, +4.85414583668E-009, +0.00000000000E+000
+9.21658125000E+007, +4.84222254076E-009, +0.00000000000E+000
+9.40406250000E+007, +4.84412424820E-009, +0.00000000000E+000
+9.59154375000E+007, +4.83277895011E-009, +0.00000000000E+000
+9.77902500000E+007, +4.82761777135E-009, +0.00000000000E+000
+9.96650625000E+007, +4.82909826678E-009, +0.00000000000E+000
+1.01539875000E+008, +4.81541707223E-009, +0.00000000000E+000
+1.03414687500E+008, +4.81775153235E-009, +0.00000000000E+000
+1.05289500000E+008, +4.81160692106E-009, +0.00000000000E+000
+1.07164312500E+008, +4.79993930819E-009, +0.00000000000E+000
+1.09039125000E+008, +4.79661529151E-009, +0.00000000000E+000
+1.10913937500E+008, +4.78728140919E-009, +0.00000000000E+000
+1.12788750000E+008, +4.78672469655E-009, +0.00000000000E+000
+1.14663562500E+008, +4.77466854054E-009, +0.00000000000E+000
+1.16538375000E+008, +4.77436175312E-009, +0.00000000000E+000
+1.18413187500E+008, +4.76512646659E-009, +0.00000000000E+000
+1.20288000000E+008, +4.76357092118E-009, +0.00000000000E+000
+1.22162812500E+008, +4.74768247873E-009, +0.00000000000E+000
+1.24037625000E+008, +4.74641779786E-009, +0.00000000000E+000
+1.25912437500E+008, +4.73818532187E-009, +0.00000000000E+000
+1.27787250000E+008, +4.73298832510E-009, +0.00000000000E+000
+1.29662062500E+008, +4.72503041450E-009, +0.00000000000E+000
+1.31536875000E+008, +4.72260193914E-009, +0.00000000000E+000
+1.33411687500E+008, +4.71253813307E-009, +0.00000000000E+000
+1.35286500000E+008, +4.70773195648E-009, +0.00000000000E+000
+1.37161312500E+008, +4.70440024075E-009, +0.00000000000E+000
+1.39036125000E+008, +4.69548370428E-009, +0.00000000000E+000
+1.40910937500E+008, +4.69605808941E-009, +0.00000000000E+000
+1.42785750000E+008, +4.68799860500E-009, +0.00000000000E+000
+1.44660562500E+008, +4.68337376575E-009, +0.00000000000E+000
+1.46535375000E+008, +4.68272818076E-009, +0.00000000000E+000
+1.48410187500E+008, +4.67807200016E-009, +0.00000000000E+000
+1.50285000000E+008, +4.67708678197E-009, +0.00000000000E+000
+1.52159812500E+008, +4.67098378236E-009, +0.00000000000E+000
+1.54034625000E+008, +4.66709823012E-009, +0.00000000000E+000
+1.55909437500E+008, +4.66338884031E-009, +0.00000000000E+000
+1.57784250000E+008, +4.66243677131E-009, +0.00000000000E+000
+1.59659062500E+008, +4.65095004590E-009, +0.00000000000E+000
+1.61533875000E+008, +4.65131468956E-009, +0.00000000000E+000
+1.63408687500E+008, +4.64570195289E-009, +0.00000000000E+000
+1.65283500000E+008, +4.64050778610E-009, +0.00000000000E+000
+1.67158312500E+008, +4.63758081264E-009, +0.00000000000E+000
+1.69033125000E+008, +4.63468993274E-009, +0.00000000000E+000
+1.70907937500E+008, +4.63326932299E-009, +0.00000000000E+000
+1.72782750000E+008, +4.62835806596E-009, +0.00000000000E+000
+1.74657562500E+008, +4.62190301936E-009, +0.00000000000E+000
+1.76532375000E+008, +4.62368907895E-009, +0.00000000000E+000
+1.78407187500E+008, +4.61682478723E-009, +0.00000000000E+000
+1.80282000000E+008, +4.61474612620E-009, +0.00000000000E+000
+1.82156812500E+008, +4.61263241678E-009, +0.00000000000E+000
+1.84031625000E+008, +4.60881689773E-009, +0.00000000000E+000
+1.85906437500E+008, +4.61040074492E-009, +0.00000000000E+000
+1.87781250000E+008, +4.60048234008E-009, +0.00000000000E+000
+1.89656062500E+008, +4.60138682158E-009, +0.00000000000E+000
+1.91530875000E+008, +4.59551809341E-009, +0.00000000000E+000
+1.93405687500E+008, +4.58498777917E-009, +0.00000000000E+000
+1.95280500000E+008, +4.58431543760E-009, +0.00000000000E+000
+1.97155312500E+008, +4.57614015004E-009, +0.00000000000E+000
+1.99030125000E+008, +4.57398274028E-009, +0.00000000000E+000
+2.00904937500E+008, +4.56883856830E-009, +0.00000000000E+000
+2.02779750000E+008, +4.56580642249E-009, +0.00000000000E+000
+2.04654562500E+008, +4.55948560816E-009, +0.00000000000E+000
+2.06529375000E+008, +4.56021124937E-009, +0.00000000000E+000
+2.08404187500E+008, +4.55282582939E-009, +0.00000000000E+000
+2.10279000000E+008, +4.55043673089E-009, +0.00000000000E+000
+2.12153812500E+008, +4.55136969855E-009, +0.00000000000E+000
+2.14028625000E+008, +4.54505918128E-009, +0.00000000000E+000
+2.15903437500E+008, +4.54567090193E-009, +0.00000000000E+000
+2.17778250000E+008, +4.54339786385E-009, +0.00000000000E+000
+2.19653062500E+008, +4.53973953926E-009, +0.00000000000E+000
+2.21527875000E+008, +4.54027280853E-009, +0.00000000000E+000
+2.23402687500E+008, +4.54250151546E-009, +0.00000000000E+000
+2.25277500000E+008, +4.54569449857E-009, +0.00000000000E+000
+2.27152312500E+008, +4.54199130688E-009, +0.00000000000E+000
+2.29027125000E+008, +4.53972560780E-009, +0.00000000000E+000
+2.30901937500E+008, +4.53817321779E-009, +0.00000000000E+000
+2.32776750000E+008, +4.54025217958E-009, +0.00000000000E+000
+2.34651562500E+008, +4.53948634035E-009, +0.00000000000E+000
+2.36526375000E+008, +4.54091032112E-009, +0.00000000000E+000
+2.38401187500E+008, +4.54207029849E-009, +0.00000000000E+000
+2.40276000000E+008, +4.54576726919E-009, +0.00000000000E+000
+2.42150812500E+008, +4.54563616963E-009, +0.00000000000E+000
+2.44025625000E+008, +4.54986877749E-009, +0.00000000000E+000
+2.45900437500E+008, +4.54753414069E-009, +0.00000000000E+000
+2.47775250000E+008, +4.55057432527E-009, +0.00000000000E+000
+2.49650062500E+008, +4.54775164655E-009, +0.00000000000E+000
+2.51524875000E+008, +4.55045943063E-009, +0.00000000000E+000
+2.53399687500E+008, +4.55199412625E-009, +0.00000000000E+000
+2.55274500000E+008, +4.55250999697E-009, +0.00000000000E+000
+2.57149312500E+008, +4.55096801783E-009, +0.00000000000E+000
+2.59024125000E+008, +4.54842905948E-009, +0.00000000000E+000
+2.60898937500E+008, +4.54896670258E-009, +0.00000000000E+000
+2.62773750000E+008, +4.54170194119E-009, +0.00000000000E+000
+2.64648562500E+008, +4.54272479780E-009, +0.00000000000E+000
+2.66523375000E+008, +4.54410628668E-009, +0.00000000000E+000
+2.68398187500E+008, +4.53385595564E-009, +0.00000000000E+000
+2.70273000000E+008, +4.53141281317E-009, +0.00000000000E+000
+2.72147812500E+008, +4.51854497797E-009, +0.00000000000E+000
+2.74022625000E+008, +4.51867616986E-009, +0.00000000000E+000
+2.75897437500E+008, +4.50869498247E-009, +0.00000000000E+000
+2.77772250000E+008, +4.50596731309E-009, +0.00000000000E+000
+2.79647062500E+008, +4.49695485579E-009, +0.00000000000E+000
+2.81521875000E+008, +4.49433010376E-009, +0.00000000000E+000
+2.83396687500E+008, +4.48749786579E-009, +0.00000000000E+000
+2.85271500000E+008, +4.47804540279E-009, +0.00000000000E+000
+2.87146312500E+008, +4.47521709512E-009, +0.00000000000E+000
+2.89021125000E+008, +4.46855280996E-009, +0.00000000000E+000
+2.90895937500E+008, +4.46454861779E-009, +0.00000000000E+000
+2.92770750000E+008, +4.45943862365E-009, +0.00000000000E+000
+2.94645562500E+008, +4.45344814668E-009, +0.00000000000E+000
+2.96520375000E+008, +4.45324811699E-009, +0.00000000000E+000
+2.98395187500E+008, +4.44856769178E-009, +0.00000000000E+000
+3.00270000000E+008, +4.44412671541E-009, +0.00000000000E+000
+3.02144812500E+008, +4.44305532623E-009, +0.00000000000E+000
+3.04019625000E+008, +4.44252219949E-009, +0.00000000000E+000
+3.05894437500E+008, +4.44640858319E-009, +0.00000000000E+000
+3.07769250000E+008, +4.44297902986E-009, +0.00000000000E+000
+3.09644062500E+008, +4.44926560303E-009, +0.00000000000E+000
+3.11518875000E+008, +4.44826185528E-009, +0.00000000000E+000
+3.13393687500E+008, +4.45143826149E-009, +0.00000000000E+000
+3.15268500000E+008, +4.45724100097E-009, +0.00000000000E+000
+3.17143312500E+008, +4.45774946657E-009, +0.00000000000E+000
+3.19018125000E+008, +4.46864849552E-009, +0.00000000000E+000
+3.20892937500E+008, +4.47509925810E-009, +0.00000000000E+000
+3.22767750000E+008, +4.48611487813E-009, +0.00000000000E+000
+3.24642562500E+008, +4.48751018447E-009, +0.00000000000E+000
+3.26517375000E+008, +4.49441095949E-009, +0.00000000000E+000
+3.28392187500E+008, +4.50053031260E-009, +0.00000000000E+000
+3.30267000000E+008, +4.49920458182E-009, +0.00000000000E+000
+3.32141812500E+008, +4.50958000859E-009, +0.00000000000E+000
+3.34016625000E+008, +4.51494636465E-009, +0.00000000000E+000
+3.35891437500E+008, +4.51641285235E-009, +0.00000000000E+000
+3.37766250000E+008, +4.52309827593E-009, +0.00000000000E+000
+3.39641062500E+008, +4.52358467807E-009, +0.00000000000E+000
+3.41515875000E+008, +4.53237323271E-009, +0.00000000000E+000
+3.43390687500E+008, +4.53511073841E-009, +0.00000000000E+000
+3.45265500000E+008, +4.53609659602E-009, +0.00000000000E+000
+3.47140312500E+008, +4.53983693411E-009, +0.00000000000E+000
+3.49015125000E+008, +4.54133774471E-009, +0.00000000000E+000
+3.50889937500E+008, +4.54017189805E-009, +0.00000000000E+000
+3.52764750000E+008, +4.53677087217E-009, +0.00000000000E+000
+3.54639562500E+008, +4.54408767006E-009, +0.00000000000E+000
+3.56514375000E+008, +4.53947875822E-009, +0.00000000000E+000
+3.58389187500E+008, +4.53835508028E-009, +0.00000000000E+000
+3.60264000000E+008, +4.54391683293E-009, +0.00000000000E+000
+3.62138812500E+008, +4.53701234447E-009, +0.00000000000E+000
+3.64013625000E+008, +4.53348246280E-009, +0.00000000000E+000
+3.65888437500E+008, +4.52897697947E-009, +0.00000000000E+000
+3.67763250000E+008, +4.52490532237E-009, +0.00000000000E+000
+3.69638062500E+008, +4.52056555664E-009, +0.00000000000E+000
+3.71512875000E+008, +4.51747164335E-009, +0.00000000000E+000
+3.73387687500E+008, +4.51693900254E-009, +0.00000000000E+000
+3.75262500000E+008, +4.51331811275E-009, +0.00000000000E+000
+3.77137312500E+008, +4.51676697812E-009, +0.00000000000E+000
+3.79012125000E+008, +4.51689882060E-009, +0.00000000000E+000
+3.80886937500E+008, +4.50696062505E-009, +0.00000000000E+000
+3.82761750000E+008, +4.51267775072E-009, +0.00000000000E+000
+3.84636562500E+008, +4.50441122609E-009, +0.00000000000E+000
+3.86511375000E+008, +4.50976762747E-009, +0.00000000000E+000
+3.88386187500E+008, +4.50268710749E-009, +0.00000000000E+000
+3.90261000000E+008, +4.50461001763E-009, +0.00000000000E+000
+3.92135812500E+008, +4.50759534533E-009, +0.00000000000E+000
+3.94010625000E+008, +4.50507494567E-009, +0.00000000000E+000
+3.95885437500E+008, +4.50390951474E-009, +0.00000000000E+000
+3.97760250000E+008, +4.51009581001E-009, +0.00000000000E+000
+3.99635062500E+008, +4.51022556410E-009, +0.00000000000E+000
+4.01509875000E+008, +4.50517719249E-009, +0.00000000000E+000
+4.03384687500E+008, +4.51307760522E-009, +0.00000000000E+000
+4.05259500000E+008, +4.51130763309E-009, +0.00000000000E+000
+4.07134312500E+008, +4.50742590006E-009, +0.00000000000E+000
+4.09009125000E+008, +4.51561434549E-009, +0.00000000000E+000
+4.10883937500E+008, +4.51646012856E-009, +0.00000000000E+000
+4.12758750000E+008, +4.52118735318E-009, +0.00000000000E+000
+4.14633562500E+008, +4.51953073422E-009, +0.00000000000E+000
+4.16508375000E+008, +4.52547887209E-009, +0.00000000000E+000
+4.18383187500E+008, +4.52902785891E-009, +0.00000000000E+000
+4.20258000000E+008, +4.52820164697E-009, +0.00000000000E+000
+4.22132812500E+008, +4.52934949667E-009, +0.00000000000E+000
+4.24007625000E+008, +4.53074730028E-009, +0.00000000000E+000
+4.25882437500E+008, +4.53343267818E-009, +0.00000000000E+000
+4.27757250000E+008, +4.53758095582E-009, +0.00000000000E+000
+4.29632062500E+008, +4.53748956981E-009, +0.00000000000E+000
+4.31506875000E+008, +4.54127251879E-009, +0.00000000000E+000
+4.33381687500E+008, +4.54291082987E-009, +0.00000000000E+000
+4.35256500000E+008, +4.54648623039E-009, +0.00000000000E+000
+4.37131312500E+008, +4.55371354223E-009, +0.00000000000E+000
+4.39006125000E+008, +4.54641281955E-009, +0.00000000000E+000
+4.40880937500E+008, +4.54731020414E-009, +0.00000000000E+000
+4.42755750000E+008, +4.55701296436E-009, +0.00000000000E+000
+4.44630562500E+008, +4.55754803335E-009, +0.00000000000E+000
+4.46505375000E+008, +4.55685417635E-009, +0.00000000000E+000
+4.48380187500E+008, +4.55735777424E-009, +0.00000000000E+000
+4.50255000000E+008, +4.55729738359E-009, +0.00000000000E+000
+4.52129812500E+008, +4.55957939367E-009, +0.00000000000E+000
+4.54004625000E+008, +4.56414933775E-009, +0.00000000000E+000
+4.55879437500E+008, +4.56455531221E-009, +0.00000000000E+000
+4.57754250000E+008, +4.56462916673E-009, +0.00000000000E+000
+4.59629062500E+008, +4.55836454926E-009, +0.00000000000E+000
+4.61503875000E+008, +4.56599308735E-009, +0.00000000000E+000
+4.63378687500E+008, +4.56949363893E-009, +0.00000000000E+000
+4.65253500000E+008, +4.56795517824E-009, +0.00000000000E+000
+4.67128312500E+008, +4.56775209557E-009, +0.00000000000E+000
+4.69003125000E+008, +4.56979396534E-009, +0.00000000000E+000
+4.70877937500E+008, +4.57106913920E-009, +0.00000000000E+000
+4.72752750000E+008, +4.56347754192E-009, +0.00000000000E+000
+4.74627562500E+008, +4.57320616876E-009, +0.00000000000E+000
+4.76502375000E+008, +4.57337362262E-009, +0.00000000000E+000
+4.78377187500E+008, +4.57359806281E-009, +0.00000000000E+000
+4.80252000000E+008, +4.57067410779E-009, +0.00000000000E+000
+4.82126812500E+008, +4.57092051849E-009, +0.00000000000E+000
+4.84001625000E+008, +4.56317848882E-009, +0.00000000000E+000
+4.85876437500E+008, +4.56781606573E-009, +0.00000000000E+000
+4.87751250000E+008, +4.57069439127E-009, +0.00000000000E+000
+4.89626062500E+008, +4.56149756794E-009, +0.00000000000E+000
+4.91500875000E+008, +4.56141698255E-009, +0.00000000000E+000
+4.93375687500E+008, +4.56478008804E-009, +0.00000000000E+000
+4.95250500000E+008, +4.56673316038E-009, +0.00000000000E+000
+4.97125312500E+008, +4.56399101504E-009, +0.00000000000E+000
+4.99000125000E+008, +4.56940251120E-009, +0.00000000000E+000
+5.00874937500E+008, +4.56365880493E-009, +0.00000000000E+000
+5.02749750000E+008, +4.57175883127E-009, +0.00000000000E+000
+5.04624562500E+008, +4.56948738263E-009, +0.00000000000E+000
+5.06499375000E+008, +4.57773529641E-009, +0.00000000000E+000
+5.08374187500E+008, +4.57385391888E-009, +0.00000000000E+000
+5.10249000000E+008, +4.57372673350E-009, +0.00000000000E+000
+5.12123812500E+008, +4.57529121184E-009, +0.00000000000E+000
+5.13998625000E+008, +4.58129963316E-009, +0.00000000000E+000
+5.15873437500E+008, +4.58257851230E-009, +0.00000000000E+000
+5.17748250000E+008, +4.58495708487E-009, +0.00000000000E+000
+5.19623062500E+008, +4.59510804994E-009, +0.00000000000E+000
+5.21497875000E+008, +4.58493457205E-009, +0.00000000000E+000
+5.23372687500E+008, +4.59337385508E-009, +0.00000000000E+000
+5.25247500000E+008, +4.59438427972E-009, +0.00000000000E+000
+5.27122312500E+008, +4.59907463320E-009, +0.00000000000E+000
+5.28997125000E+008, +4.60517348557E-009, +0.00000000000E+000
+5.30871937500E+008, +4.60827159828E-009, +0.00000000000E+000
+5.32746750000E+008, +4.61185577231E-009, +0.00000000000E+000
+5.34621562500E+008, +4.60941494211E-009, +0.00000000000E+000
+5.36496375000E+008, +4.61805327129E-009, +0.00000000000E+000
+5.38371187500E+008, +4.61125711159E-009, +0.00000000000E+000
+5.40246000000E+008, +4.61878191198E-009, +0.00000000000E+000
+5.42120812500E+008, +4.61994844638E-009, +0.00000000000E+000
+5.43995625000E+008, +4.62370934267E-009, +0.00000000000E+000
+5.45870437500E+008, +4.61675615466E-009, +0.00000000000E+000
+5.47745250000E+008, +4.62187116782E-009, +0.00000000000E+000
+5.49620062500E+008, +4.61596503675E-009, +0.00000000000E+000
+5.51494875000E+008, +4.61751202929E-009, +0.00000000000E+000
+5.53369687500E+008, +4.62110430001E-009, +0.00000000000E+000
+5.55244500000E+008, +4.62893185033E-009, +0.00000000000E+000
+5.57119312500E+008, +4.62368461271E-009, +0.00000000000E+000
+5.58994125000E+008, +4.62670703684E-009, +0.00000000000E+000
+5.60868937500E+008, +4.62833581213E-009, +0.00000000000E+000
+5.62743750000E+008, +4.62823433136E-009, +0.00000000000E+000
+5.64618562500E+008, +4.63322525313E-009, +0.00000000000E+000
+5.66493375000E+008, +4.62911720162E-009, +0.00000000000E+000
+5.68368187500E+008, +4.63712359349E-009, +0.00000000000E+000
+5.70243000000E+008, +4.63364571352E-009, +0.00000000000E+000
+5.72117812500E+008, +4.63444621541E-009, +0.00000000000E+000
+5.73992625000E+008, +4.63928696440E-009, +0.00000000000E+000
+5.75867437500E+008, +4.63786232467E-009, +0.00000000000E+000
+5.77742250000E+008, +4.63707767818E-009, +0.00000000000E+000
+5.79617062500E+008, +4.64342255920E-009, +0.00000000000E+000
+5.81491875000E+008, +4.64894570586E-009, +0.00000000000E+000
+5.83366687500E+008, +4.65106891194E-009, +0.00000000000E+000
+5.85241500000E+008, +4.66265719741E-009, +0.00000000000E+000
+5.87116312500E+008, +4.66132597768E-009, +0.00000000000E+000
+5.88991125000E+008, +4.66535740116E-009, +0.00000000000E+000
+5.90865937500E+008, +4.66925540588E-009, +0.00000000000E+000
