"# Channel 1"
"# Trace 1"
Frequency, Formatted Data, Formatted Data
+3.00000000000E+005, +2.35985368606E+000, +0.00000000000E+000
+2.17481250000E+006, +2.24900736098E+000, +0.00000000000E+000
+4.04962500000E+006, +2.21850208998E+000, +0.00000000000E+000
+5.92443750000E+006, +2.20050832788E+000, +0.00000000000E+000
+7.79925000000E+006, +2.18339580872E+000, +0.00000000000E+000
+9.67406250000E+006, +2.16915037964E+000, +0.00000000000E+000
+1.15488750000E+007, +2.15430980867E+000, +0.00000000000E+000
+1.34236875000E+007, +2.14001366283E+000, +0.00000000000E+000
+1.52985000000E+007, +2.12444777203E+000, +0.00000000000E+000
+1.71733125000E+007, +2.10963018744E+000, +0.00000000000E+000
+1.90481250000E+007, +2.09304932846E+000, +0.00000000000E+000
+2.09229375000E+007, +2.07629380610E+000, +0.00000000000E+000
+2.27977500000E+007, +2.06006278179E+000, +0.00000000000E+000
+2.46725625000E+007, +2.03948587920E+000, +0.00000000000E+000
+2.65473750000E+007, +2.02246761538E+000, +0.00000000000E+000
+2.84221875000E+007, +2.00748174374E+000, +0.00000000000E+000
+3.02970000000E+007, +1.98971266002E+000, +0.00000000000E+000
+3.21718125000E+007, +1.97266676295E+000, +0.00000000000E+000
+3.40466250000E+007, +1.95485256508E+000, +0.00000000000E+000
+3.59214375000E+007, +1.93735177673E+000, +0.00000000000E+000
+3.77962500000E+007, +1.91751136959E+000, +0.00000000000E+000
+3.96710625000E+007, +1.89967886611E+000, +0.00000000000E+000
+4.15458750000E+007, +1.87929928573E+000, +0.00000000000E+000
+4.34206875000E+007, +1.86043270690E+000, +0.00000000000E+000
+4.52955000000E+007, +1.83954678215E+000, +0.00000000000E+000
+4.71703125000E+007, +1.81892589603E+000, +0.00000000000E+000
+4.90451250000E+007, +1.79625134360E+000, +0.00000000000E+000
+5.09199375000E+007, +1.77486862268E+000, +0.00000000000E+000
+5.27947500000E+007, +1.75240823577E+000, +0.00000000000E+000
+5.46695625000E+007, +1.73025503159E+000, +0.00000000000E+000
+5.65443750000E+007, +1.70595913073E+000, +0.00000000000E+000
+5.84191875000E+007, +1.68231360582E+000, +0.00000000000E+000
+6.02940000000E+007, +1.65749083988E+000, +0.00000000000E+000
+6.21688125000E+007, +1.63495556338E+000, +0.00000000000E+000
+6.40436250000E+007, +1.60978252614E+000, +0.00000000000E+000
+6.59184375000E+007, +1.58508308773E+000, +0.00000000000E+000
+6.77932500000E+007, +1.55711186452E+000, +0.00000000000E+000
+6.96680625000E+007, +1.53268444298E+000, +0.00000000000E+000
+7.15428750000E+007, +1.50550930995E+000, +0.00000000000E+000
+7.34176875000E+007, +1.48023442260E+000, +0.00000000000E+000
+7.52925000000E+007, +1.45229529446E+000, +0.00000000000E+000
+7.71673125000E+007, +1.42675287011E+000, +0.00000000000E+000
+7.90421250000E+007, +1.39877525415E+000, +0.00000000000E+000
+8.09169375000E+007, +1.37297874322E+000, +0.00000000000E+000
+8.27917500000E+007, +1.34517529582E+000, +0.00000000000E+000
+8.46665625000E+007, +1.32136775759E+000, +0.00000000000E+000
+8.65413750000E+007, +1.29600582646E+000, +0.00000000000E+000
+8.84161875000E+007, +1.27321085856E+000, +0.00000000000E+000
+9.02910000000E+007, +1.24931776528E+000, +0.00000000000E+000
+9.21658125000E+007, +1.22771350867E+000, +0.00000000000E+000
+9.40406250000E+007, +1.20689752520E+000, +0.00000000000E+000
+9.59154375000E+007, +1.18943038609E+000, +0.00000000000E+000
+9.77902500000E+007, +1.16871706233E+000, +0.00000000000E+000
+9.96650625000E+007, +1.15146523192E+000, +0.00000000000E+000
+1.01539875000E+008, +1.13351555287E+000, +0.00000000000E+000
+1.03414687500E+008, +1.11860312873E+000, +0.00000000000E+000
+1.05289500000E+008, +1.10315484069E+000, +0.00000000000E+000
+1.07164312500E+008, +1.08959270270E+000, +0.00000000000E+000
+1.09039125000E+008, +1.07308431308E+000, +0.00000000000E+000
+1.10913937500E+008, +1.06126797249E+000, +0.00000000000E+000
+1.12788750000E+008, +1.04693137163E+000, +0.00000000000E+000
+1.14663562500E+008, +1.03542215525E+000, +0.00000000000E+000
+1.16538375000E+008, +1.02209411892E+000, +0.00000000000E+000
+1.18413187500E+008, +1.01100712523E+000, +0.00000000000E+000
+1.20288000000E+008, +9.99457322742E-001, +0.00000000000E+000
+1.22162812500E+008, +9.92194622405E-001, +0.00000000000E+000
+1.24037625000E+008, +9.82649827637E-001, +0.00000000000E+000
+1.25912437500E+008, +9.78034055175E-001, +0.00000000000E+000
+1.27787250000E+008, +9.70157719820E-001, +0.00000000000E+000
+1.29662062500E+008, +9.64057866195E-001, +0.00000000000E+000
+1.31536875000E+008, +9.56095273633E-001, +0.00000000000E+000
+1.33411687500E+008, +9.48663016601E-001, +0.00000000000E+000
+1.35286500000E+008, +9.40186170377E-001, +0.00000000000E+000
+1.37161312500E+008, +9.32404268198E-001, +0.00000000000E+000
+1.39036125000E+008, +9.23597195896E-001, +0.00000000000E+000
+1.40910937500E+008, +9.14891543134E-001, +0.00000000000E+000
+1.42785750000E+008, +9.04211116232E-001, +0.00000000000E+000
+1.44660562500E+008, +8.96798652032E-001, +0.00000000000E+000
+1.46535375000E+008, +8.87119781522E-001, +0.00000000000E+000
+1.48410187500E+008, +8.78504698384E-001, +0.00000000000E+000
+1.50285000000E+008, +8.68321097228E-001, +0.00000000000E+000
+1.52159812500E+008, +8.58625559277E-001, +0.00000000000E+000
+1.54034625000E+008, +8.48071340519E-001, +0.00000000000E+000
+1.55909437500E+008, +8.40031483933E-001, +0.00000000000E+000
+1.57784250000E+008, +8.31610699948E-001, +0.00000000000E+000
+1.59659062500E+008, +8.25709126244E-001, +0.00000000000E+000
+1.61533875000E+008, +8.19212894580E-001, +0.00000000000E+000
+1.63408687500E+008, +8.14292370438E-001, +0.00000000000E+000
+1.65283500000E+008, +8.08104994152E-001, +0.00000000000E+000
+1.67158312500E+008, +8.04093870960E-001, +0.00000000000E+000
+1.69033125000E+008, +7.95762022237E-001, +0.00000000000E+000
+1.70907937500E+008, +7.89758982999E-001, +0.00000000000E+000
+1.72782750000E+008, +7.79667617713E-001, +0.00000000000E+000
+1.74657562500E+008, +7.71053362872E-001, +0.00000000000E+000
+1.76532375000E+008, +7.62563931646E-001, +0.00000000000E+000
+1.78407187500E+008, +7.55156648040E-001, +0.00000000000E+000
+1.80282000000E+008, +7.48035520998E-001, +0.00000000000E+000
+1.82156812500E+008, +7.40755459260E-001, +0.00000000000E+000
+1.84031625000E+008, +7.33962572673E-001, +0.00000000000E+000
+1.85906437500E+008, +7.28309912150E-001, +0.00000000000E+000
+1.87781250000E+008, +7.20766823664E-001, +0.00000000000E+000
+1.89656062500E+008, +7.15309891517E-001, +0.00000000000E+000
+1.91530875000E+008, +7.07177440672E-001, +0.00000000000E+000
+1.93405687500E+008, +7.01860013477E-001, +0.00000000000E+000
+1.95280500000E+008, +6.93837562956E-001, +0.00000000000E+000
+1.97155312500E+008, +6.88336641969E-001, +0.00000000000E+000
+1.99030125000E+008, +6.80907907311E-001, +0.00000000000E+000
+2.00904937500E+008, +6.75816396297E-001, +0.00000000000E+000
+2.02779750000E+008, +6.69934367169E-001, +0.00000000000E+000
+2.04654562500E+008, +6.63460066059E-001, +0.00000000000E+000
+2.06529375000E+008, +6.54734084988E-001, +0.00000000000E+000
+2.08404187500E+008, +6.47663951444E-001, +0.00000000000E+000
+2.10279000000E+008, +6.39160154105E-001, +0.00000000000E+000
+2.12153812500E+008, +6.33486937563E-001, +0.00000000000E+000
+2.14028625000E+008, +6.24725399181E-001, +0.00000000000E+000
+2.15903437500E+008, +6.19601290866E-001, +0.00000000000E+000
+2.17778250000E+008, +6.14890175888E-001, +0.00000000000E+000
+2.19653062500E+008, +6.12118298062E-001, +0.00000000000E+000
+2.21527875000E+008, +6.09487803880E-001, +0.00000000000E+000
+2.23402687500E+008, +6.07736076097E-001, +0.00000000000E+000
+2.25277500000E+008, +6.03561469765E-001, +0.00000000000E+000
+2.27152312500E+008, +6.00394204717E-001, +0.00000000000E+000
+2.29027125000E+008, +5.95245804460E-001, +0.00000000000E+000
+2.30901937500E+008, +5.93116560092E-001, +0.00000000000E+000
+2.32776750000E+008, +5.88409448879E-001, +0.00000000000E+000
+2.34651562500E+008, +5.86036673053E-001, +0.00000000000E+000
+2.36526375000E+008, +5.81426267094E-001, +0.00000000000E+000
+2.38401187500E+008, +5.78871702306E-001, +0.00000000000E+000
+2.40276000000E+008, +5.72967903830E-001, +0.00000000000E+000
+2.42150812500E+008, +5.73115637154E-001, +0.00000000000E+000
+2.44025625000E+008, +5.69149020605E-001, +0.00000000000E+000
+2.45900437500E+008, +5.68811941880E-001, +0.00000000000E+000
+2.47775250000E+008, +5.65808799830E-001, +0.00000000000E+000
+2.49650062500E+008, +5.64063428486E-001, +0.00000000000E+000
+2.51524875000E+008, +5.60475027193E-001, +0.00000000000E+000
+2.53399687500E+008, +5.60535954501E-001, +0.00000000000E+000
+2.55274500000E+008, +5.58915421432E-001, +0.00000000000E+000
+2.57149312500E+008, +5.58982118578E-001, +0.00000000000E+000
+2.59024125000E+008, +5.56386462751E-001, +0.00000000000E+000
+2.60898937500E+008, +5.57180412839E-001, +0.00000000000E+000
+2.62773750000E+008, +5.55381012424E-001, +0.00000000000E+000
+2.64648562500E+008, +5.54732204603E-001, +0.00000000000E+000
+2.66523375000E+008, +5.53227892367E-001, +0.00000000000E+000
+2.68398187500E+008, +5.52850807494E-001, +0.00000000000E+000
+2.70273000000E+008, +5.50457612829E-001, +0.00000000000E+000
+2.72147812500E+008, +5.51314999054E-001, +0.00000000000E+000
+2.74022625000E+008, +5.50432472060E-001, +0.00000000000E+000
+2.75897437500E+008, +5.52031361085E-001, +0.00000000000E+000
+2.77772250000E+008, +5.51102898297E-001, +0.00000000000E+000
+2.79647062500E+008, +5.51026221492E-001, +0.00000000000E+000
+2.81521875000E+008, +5.52551904566E-001, +0.00000000000E+000
+2.83396687500E+008, +5.55707926001E-001, +0.00000000000E+000
+2.85271500000E+008, +5.58598866720E-001, +0.00000000000E+000
+2.87146312500E+008, +5.63406080368E-001, +0.00000000000E+000
+2.89021125000E+008, +5.64498222514E-001, +0.00000000000E+000
+2.90895937500E+008, +5.68169949152E-001, +0.00000000000E+000
+2.92770750000E+008, +5.69572377840E-001, +0.00000000000E+000
+2.94645562500E+008, +5.72776436973E-001, +0.00000000000E+000
+2.96520375000E+008, +5.76095579879E-001, +0.00000000000E+000
+2.98395187500E+008, +5.81363123357E-001, +0.00000000000E+000
+3.00270000000E+008, +5.84292847838E-001, +0.00000000000E+000
+3.02144812500E+008, +5.89546789372E-001, +0.00000000000E+000
+3.04019625000E+008, +5.92316671062E-001, +0.00000000000E+000
+3.05894437500E+008, +5.97942247272E-001, +0.00000000000E+000
+3.07769250000E+008, +6.01935696606E-001, +0.00000000000E+000
+3.09644062500E+008, +6.08382596723E-001, +0.00000000000E+000
+3.11518875000E+008, +6.13686471499E-001, +0.00000000000E+000
+3.13393687500E+008, +6.19814835374E-001, +0.00000000000E+000
+3.15268500000E+008, +6.25405404716E-001, +0.00000000000E+000
+3.17143312500E+008, +6.33455369937E-001, +0.00000000000E+000
+3.19018125000E+008, +6.38067171074E-001, +0.00000000000E+000
+3.20892937500E+008, +6.44290339193E-001, +0.00000000000E+000
+3.22767750000E+008, +6.52635584412E-001, +0.00000000000E+000
+3.24642562500E+008, +6.59870202164E-001, +0.00000000000E+000
+3.26517375000E+008, +6.67891924396E-001, +0.00000000000E+000
+3.28392187500E+008, +6.74645027005E-001, +0.00000000000E+000
+3.30267000000E+008, +6.80928178041E-001, +0.00000000000E+000
+3.32141812500E+008, +6.88291919011E-001, +0.00000000000E+000
+3.34016625000E+008, +6.95802252331E-001, +0.00000000000E+000
+3.35891437500E+008, +7.03769873506E-001, +0.00000000000E+000
+3.37766250000E+008, +7.12443389378E-001, +0.00000000000E+000
+3.39641062500E+008, +7.21713320341E-001, +0.00000000000E+000
+3.41515875000E+008, +7.30564167179E-001, +0.00000000000E+000
+3.43390687500E+008, +7.40151784095E-001, +0.00000000000E+000
+3.45265500000E+008, +7.49069224836E-001, +0.00000000000E+000
+3.47140312500E+008, +7.57546680514E-001, +0.00000000000E+000
+3.49015125000E+008, +7.65865802519E-001, +0.00000000000E+000
+3.50889937500E+008, +7.77074599544E-001, +0.00000000000E+000
+3.52764750000E+008, +7.87971248373E-001, +0.00000000000E+000
+3.54639562500E+008, +7.99631488908E-001, +0.00000000000E+000
+3.56514375000E+008, +8.08919483994E-001, +0.00000000000E+000
+3.58389187500E+008, +8.20235562620E-001, +0.00000000000E+000
+3.60264000000E+008, +8.30050414187E-001, +0.00000000000E+000
+3.62138812500E+008, +8.39297064452E-001, +0.00000000000E+000
+3.64013625000E+008, +8.48880132395E-001, +0.00000000000E+000
+3.65888437500E+008, +8.61424927485E-001, +0.00000000000E+000
+3.67763250000E+008, +8.72521074607E-001, +0.00000000000E+000
+3.69638062500E+008, +8.82971301656E-001, +0.00000000000E+000
+3.71512875000E+008, +8.94644750925E-001, +0.00000000000E+000
+3.73387687500E+008, +9.07385007352E-001, +0.00000000000E+000
+3.75262500000E+008, +9.19763360850E-001, +0.00000000000E+000
+3.77137312500E+008, +9.32172605688E-001, +0.00000000000E+000
+3.79012125000E+008, +9.45145898287E-001, +0.00000000000E+000
+3.80886937500E+008, +9.56898830103E-001, +0.00000000000E+000
+3.82761750000E+008, +9.68453734404E-001, +0.00000000000E+000
+3.84636562500E+008, +9.82282296898E-001, +0.00000000000E+000
+3.86511375000E+008, +9.94859333297E-001, +0.00000000000E+000
+3.88386187500E+008, +1.00913942135E+000, +0.00000000000E+000
+3.90261000000E+008, +1.02280121077E+000, +0.00000000000E+000
+3.92135812500E+008, +1.03490511253E+000, +0.00000000000E+000
+3.94010625000E+008, +1.04929552494E+000, +0.00000000000E+000
+3.95885437500E+008, +1.06407729230E+000, +0.00000000000E+000
+3.97760250000E+008, +1.07723548155E+000, +0.00000000000E+000
+3.99635062500E+008, +1.09065568346E+000, +0.00000000000E+000
+4.01509875000E+008, +1.10359931842E+000, +0.00000000000E+000
+4.03384687500E+008, +1.11754088235E+000, +0.00000000000E+000
+4.05259500000E+008, +1.12892712626E+000, +0.00000000000E+000
+4.07134312500E+008, +1.14399196212E+000, +0.00000000000E+000
+4.09009125000E+008, +1.15807849828E+000, +0.00000000000E+000
+4.10883937500E+008, +1.17405113308E+000, +0.00000000000E+000
+4.12758750000E+008, +1.18782737777E+000, +0.00000000000E+000
+4.14633562500E+008, +1.20384668549E+000, +0.00000000000E+000
+4.16508375000E+008, +1.22040258763E+000, +0.00000000000E+000
+4.18383187500E+008, +1.23600141724E+000, +0.00000000000E+000
+4.20258000000E+008, +1.25043648067E+000, +0.00000000000E+000
+4.22132812500E+008, +1.26691258465E+000, +0.00000000000E+000
+4.24007625000E+008, +1.28131975733E+000, +0.00000000000E+000
+4.25882437500E+008, +1.29652994312E+000, +0.00000000000E+000
+4.27757250000E+008, +1.31230470943E+000, +0.00000000000E+000
+4.29632062500E+008, +1.32965887325E+000, +0.00000000000E+000
+4.31506875000E+008, +1.34347278910E+000, +0.00000000000E+000
+4.33381687500E+008, +1.35927456101E+000, +0.00000000000E+000
+4.35256500000E+008, +1.37411296586E+000, +0.00000000000E+000
+4.37131312500E+008, +1.38975172834E+000, +0.00000000000E+000
+4.39006125000E+008, +1.40573024095E+000, +0.00000000000E+000
+4.40880937500E+008, +1.42350872017E+000, +0.00000000000E+000
+4.42755750000E+008, +1.43949126921E+000, +0.00000000000E+000
+4.44630562500E+008, +1.45517225598E+000, +0.00000000000E+000
+4.46505375000E+008, +1.47194380427E+000, +0.00000000000E+000
+4.48380187500E+008, +1.48908533080E+000, +0.00000000000E+000
+4.50255000000E+008, +1.50603273685E+000, +0.00000000000E+000
+4.52129812500E+008, +1.52582810730E+000, +0.00000000000E+000
+4.54004625000E+008, +1.54179047432E+000, +0.00000000000E+000
+4.55879437500E+008, +1.56021760356E+000, +0.00000000000E+000
+4.57754250000E+008, +1.57564280271E+000, +0.00000000000E+000
+4.59629062500E+008, +1.59326886328E+000, +0.00000000000E+000
+4.61503875000E+008, +1.61049536894E+000, +0.00000000000E+000
+4.63378687500E+008, +1.62618941177E+000, +0.00000000000E+000
+4.65253500000E+008, +1.64234632054E+000, +0.00000000000E+000
+4.67128312500E+008, +1.65954272343E+000, +0.00000000000E+000
+4.69003125000E+008, +1.67535984717E+000, +0.00000000000E+000
+4.70877937500E+008, +1.69351057293E+000, +0.00000000000E+000
+4.72752750000E+008, +1.71124818328E+000, +0.00000000000E+000
+4.74627562500E+008, +1.72782572908E+000, +0.00000000000E+000
+4.76502375000E+008, +1.74539661762E+000, +0.00000000000E+000
+4.78377187500E+008, +1.76242017750E+000, +0.00000000000E+000
+4.80252000000E+008, +1.78109025051E+000, +0.00000000000E+000
+4.82126812500E+008, +1.79795849488E+000, +0.00000000000E+000
+4.84001625000E+008, +1.81561244814E+000, +0.00000000000E+000
+4.85876437500E+008, +1.83383865247E+000, +0.00000000000E+000
+4.87751250000E+008, +1.85110423494E+000, +0.00000000000E+000
+4.89626062500E+008, +1.86845220191E+000, +0.00000000000E+000
+4.91500875000E+008, +1.88861535926E+000, +0.00000000000E+000
+4.93375687500E+008, +1.90505595470E+000, +0.00000000000E+000
+4.95250500000E+008, +1.92382087420E+000, +0.00000000000E+000
+4.97125312500E+008, +1.94100194869E+000, +0.00000000000E+000
+4.99000125000E+008, +1.95911339385E+000, +0.00000000000E+000
+5.00874937500E+008, +1.97694140319E+000, +0.00000000000E+000
+5.02749750000E+008, +1.99596613885E+000, +0.00000000000E+000
+5.04624562500E+008, +2.01368080510E+000, +0.00000000000E+000
+5.06499375000E+008, +2.03101354603E+000, +0.00000000000E+000
+5.08374187500E+008, +2.04678892037E+000, +0.00000000000E+000
+5.10249000000E+008, +2.06397024858E+000, +0.00000000000E+000
+5.12123812500E+008, +2.08286891262E+000, +0.00000000000E+000
+5.13998625000E+008, +2.10205656537E+000, +0.00000000000E+000
+5.15873437500E+008, +2.11970205818E+000, +0.00000000000E+000
+5.17748250000E+008, +2.13893432868E+000, +0.00000000000E+000
+5.19623062500E+008, +2.15497062891E+000, +0.00000000000E+000
+5.21497875000E+008, +2.17413548544E+000, +0.00000000000E+000
+5.23372687500E+008, +2.19039614092E+000, +0.00000000000E+000
+5.25247500000E+008, +2.20975175140E+000, +0.00000000000E+000
+5.27122312500E+008, +2.22465631891E+000, +0.00000000000E+000
+5.28997125000E+008, +2.24396995965E+000, +0.00000000000E+000
+5.30871937500E+008, +2.26143691071E+000, +0.00000000000E+000
+5.32746750000E+008, +2.27954525970E+000, +0.00000000000E+000
+5.34621562500E+008, +2.29663758916E+000, +0.00000000000E+000
+5.36496375000E+008, +2.31411648327E+000, +0.00000000000E+000
+5.38371187500E+008, +2.32816471368E+000, +0.00000000000E+000
+5.40246000000E+008, +2.34496546868E+000, +0.00000000000E+000
+5.42120812500E+008, +2.35940621942E+000, +0.00000000000E+000
+5.43995625000E+008, +2.37683579711E+000, +0.00000000000E+000
+5.45870437500E+008, +2.39147002621E+000, +0.00000000000E+000
+5.47745250000E+008, +2.40884999995E+000, +0.00000000000E+000
+5.49620062500E+008, +2.42301690813E+000, +0.00000000000E+000
+5.51494875000E+008, +2.44002436037E+000, +0.00000000000E+000
+5.53369687500E+008, +2.45649339323E+000, +0.00000000000E+000
+5.55244500000E+008, +2.47461419065E+000, +0.00000000000E+000
+5.57119312500E+008, +2.49091274021E+000, +0.00000000000E+000
+5.58994125000E+008, +2.50732631838E+000, +0.00000000000E+000
+5.60868937500E+008, +2.52208328482E+000, +0.00000000000E+000
+5.62743750000E+008, +2.53749441713E+000, +0.00000000000E+000
+5.64618562500E+008, +2.55160128053E+000, +0.00000000000E+000
+5.66493375000E+008, +2.56740389825E+000, +0.00000000000E+000
+5.68368187500E+008, +2.58246033030E+000, +0.00000000000E+000
+5.70243000000E+008, +2.59814711493E+000, +0.00000000000E+000
+5.72117812500E+008, +2.61306403581E+000, +0.00000000000E+000
+5.73992625000E+008, +2.63094111847E+000, +0.00000000000E+000
+5.75867437500E+008, +2.64487884587E+000, +0.00000000000E+000
+5.77742250000E+008, +2.65928715952E+000, +0.00000000000E+000
+5.79617062500E+008, +2.67468806262E+000, +0.00000000000E+000
+5.81491875000E+008, +2.68973195219E+000, +0.00000000000E+000
+5.83366687500E+008, +2.70391033290E+000, +0.00000000000E+000
+5.85241500000E+008, +2.72189569895E+000, +0.00000000000E+000
+5.87116312500E+008, +2.73764528172E+000, +0.00000000000E+000
+5.88991125000E+008, +2.75342696952E+000, +0.00000000000E+000
+5.90865937500E+008, +2.76785103312E+000, +0.00000000000E+000
