"# Channel 1"
"# Trace 1"
Frequency, Formatted Data, Formatted Data
+3.00000000000E+005, +4.59122357730E+000, +0.00000000000E+000
+2.17481250000E+006, +4.44646745465E+000, +0.00000000000E+000
+4.04962500000E+006, +4.38447019682E+000, +0.00000000000E+000
+5.92443750000E+006, +4.32705711545E+000, +0.00000000000E+000
+7.79925000000E+006, +4.27329179549E+000, +0.00000000000E+000
+9.67406250000E+006, +4.22267578208E+000, +0.00000000000E+000
+1.15488750000E+007, +4.16902913931E+000, +0.00000000000E+000
+1.34236875000E+007, +4.11573232407E+000, +0.00000000000E+000
+1.52985000000E+007, +4.06272235287E+000, +0.00000000000E+000
+1.71733125000E+007, +4.00907740912E+000, +0.00000000000E+000
+1.90481250000E+007, +3.95390706572E+000, +0.00000000000E+000
+2.09229375000E+007, +3.89864193832E+000, +0.00000000000E+000
+2.27977500000E+007, +3.84148773884E+000, +0.00000000000E+000
+2.46725625000E+007, +3.78282642996E+000, +0.00000000000E+000
+2.65473750000E+007, +3.72771993975E+000, +0.00000000000E+000
+2.84221875000E+007, +3.67389760495E+000, +0.00000000000E+000
+3.02970000000E+007, +3.61639092083E+000, +0.00000000000E+000
+3.21718125000E+007, +3.56031980383E+000, +0.00000000000E+000
+3.40466250000E+007, +3.50209952971E+000, +0.00000000000E+000
+3.59214375000E+007, +3.44516339737E+000, +0.00000000000E+000
+3.77962500000E+007, +3.38501717174E+000, +0.00000000000E+000
+3.96710625000E+007, +3.32651481327E+000, +0.00000000000E+000
+4.15458750000E+007, +3.26431842367E+000, +0.00000000000E+000
+4.34206875000E+007, +3.20441516008E+000, +0.00000000000E+000
+4.52955000000E+007, +3.14376805072E+000, +0.00000000000E+000
+4.71703125000E+007, +3.08245018081E+000, +0.00000000000E+000
+4.90451250000E+007, +3.01979164761E+000, +0.00000000000E+000
+5.09199375000E+007, +2.95669266255E+000, +0.00000000000E+000
+5.27947500000E+007, +2.89140693776E+000, +0.00000000000E+000
+5.46695625000E+007, +2.82807707647E+000, +0.00000000000E+000
+5.65443750000E+007, +2.76189715799E+000, +0.00000000000E+000
+5.84191875000E+007, +2.69631912340E+000, +0.00000000000E+000
+6.02940000000E+007, +2.62860280844E+000, +0.00000000000E+000
+6.21688125000E+007, +2.56240136574E+000, +0.00000000000E+000
+6.40436250000E+007, +2.49363870639E+000, +0.00000000000E+000
+6.59184375000E+007, +2.42523100733E+000, +0.00000000000E+000
+6.77932500000E+007, +2.35481420119E+000, +0.00000000000E+000
+6.96680625000E+007, +2.28678472568E+000, +0.00000000000E+000
+7.15428750000E+007, +2.21411390840E+000, +0.00000000000E+000
+7.34176875000E+007, +2.14421211646E+000, +0.00000000000E+000
+7.52925000000E+007, +2.07106307503E+000, +0.00000000000E+000
+7.71673125000E+007, +2.00059406178E+000, +0.00000000000E+000
+7.90421250000E+007, +1.92827474262E+000, +0.00000000000E+000
+8.09169375000E+007, +1.86039458607E+000, +0.00000000000E+000
+8.27917500000E+007, +1.79339283250E+000, +0.00000000000E+000
+8.46665625000E+007, +1.73118595196E+000, +0.00000000000E+000
+8.65413750000E+007, +1.66810551458E+000, +0.00000000000E+000
+8.84161875000E+007, +1.61216619018E+000, +0.00000000000E+000
+9.02910000000E+007, +1.55414759903E+000, +0.00000000000E+000
+9.21658125000E+007, +1.50090811057E+000, +0.00000000000E+000
+9.40406250000E+007, +1.44788428417E+000, +0.00000000000E+000
+9.59154375000E+007, +1.40064513711E+000, +0.00000000000E+000
+9.77902500000E+007, +1.35418483367E+000, +0.00000000000E+000
+9.96650625000E+007, +1.31159576961E+000, +0.00000000000E+000
+1.01539875000E+008, +1.26842634326E+000, +0.00000000000E+000
+1.03414687500E+008, +1.23223575901E+000, +0.00000000000E+000
+1.05289500000E+008, +1.19680120524E+000, +0.00000000000E+000
+1.07164312500E+008, +1.16550063471E+000, +0.00000000000E+000
+1.09039125000E+008, +1.13594049404E+000, +0.00000000000E+000
+1.10913937500E+008, +1.11004788883E+000, +0.00000000000E+000
+1.12788750000E+008, +1.08460644407E+000, +0.00000000000E+000
+1.14663562500E+008, +1.06433615221E+000, +0.00000000000E+000
+1.16538375000E+008, +1.04329046608E+000, +0.00000000000E+000
+1.18413187500E+008, +1.02870781035E+000, +0.00000000000E+000
+1.20288000000E+008, +1.01374398731E+000, +0.00000000000E+000
+1.22162812500E+008, +1.00406304339E+000, +0.00000000000E+000
+1.24037625000E+008, +9.94663860787E-001, +0.00000000000E+000
+1.25912437500E+008, +9.88615342304E-001, +0.00000000000E+000
+1.27787250000E+008, +9.81301582502E-001, +0.00000000000E+000
+1.29662062500E+008, +9.73531980231E-001, +0.00000000000E+000
+1.31536875000E+008, +9.64700342483E-001, +0.00000000000E+000
+1.33411687500E+008, +9.56971379377E-001, +0.00000000000E+000
+1.35286500000E+008, +9.48013792803E-001, +0.00000000000E+000
+1.37161312500E+008, +9.41995445513E-001, +0.00000000000E+000
+1.39036125000E+008, +9.32294874648E-001, +0.00000000000E+000
+1.40910937500E+008, +9.25386070824E-001, +0.00000000000E+000
+1.42785750000E+008, +9.14930501340E-001, +0.00000000000E+000
+1.44660562500E+008, +9.07563438639E-001, +0.00000000000E+000
+1.46535375000E+008, +8.98287731242E-001, +0.00000000000E+000
+1.48410187500E+008, +8.90781876657E-001, +0.00000000000E+000
+1.50285000000E+008, +8.80527025983E-001, +0.00000000000E+000
+1.52159812500E+008, +8.71983285033E-001, +0.00000000000E+000
+1.54034625000E+008, +8.63237902657E-001, +0.00000000000E+000
+1.55909437500E+008, +8.53677610889E-001, +0.00000000000E+000
+1.57784250000E+008, +8.44493406401E-001, +0.00000000000E+000
+1.59659062500E+008, +8.37599559555E-001, +0.00000000000E+000
+1.61533875000E+008, +8.30357304747E-001, +0.00000000000E+000
+1.63408687500E+008, +8.24813614018E-001, +0.00000000000E+000
+1.65283500000E+008, +8.17398796437E-001, +0.00000000000E+000
+1.67158312500E+008, +8.11061255960E-001, +0.00000000000E+000
+1.69033125000E+008, +8.02271898997E-001, +0.00000000000E+000
+1.70907937500E+008, +7.94902197896E-001, +0.00000000000E+000
+1.72782750000E+008, +7.86657501441E-001, +0.00000000000E+000
+1.74657562500E+008, +7.78438279057E-001, +0.00000000000E+000
+1.76532375000E+008, +7.71239133060E-001, +0.00000000000E+000
+1.78407187500E+008, +7.65016612784E-001, +0.00000000000E+000
+1.80282000000E+008, +7.58498412227E-001, +0.00000000000E+000
+1.82156812500E+008, +7.50106580088E-001, +0.00000000000E+000
+1.84031625000E+008, +7.40661456050E-001, +0.00000000000E+000
+1.85906437500E+008, +7.34634807297E-001, +0.00000000000E+000
+1.87781250000E+008, +7.25680474994E-001, +0.00000000000E+000
+1.89656062500E+008, +7.19093869542E-001, +0.00000000000E+000
+1.91530875000E+008, +7.11126165753E-001, +0.00000000000E+000
+1.93405687500E+008, +7.03757958658E-001, +0.00000000000E+000
+1.95280500000E+008, +6.96947672198E-001, +0.00000000000E+000
+1.97155312500E+008, +6.90507595446E-001, +0.00000000000E+000
+1.99030125000E+008, +6.81952601752E-001, +0.00000000000E+000
+2.00904937500E+008, +6.75021052039E-001, +0.00000000000E+000
+2.02779750000E+008, +6.68418477211E-001, +0.00000000000E+000
+2.04654562500E+008, +6.62584369704E-001, +0.00000000000E+000
+2.06529375000E+008, +6.54872554858E-001, +0.00000000000E+000
+2.08404187500E+008, +6.47164874740E-001, +0.00000000000E+000
+2.10279000000E+008, +6.38578928197E-001, +0.00000000000E+000
+2.12153812500E+008, +6.31661256875E-001, +0.00000000000E+000
+2.14028625000E+008, +6.23948678702E-001, +0.00000000000E+000
+2.15903437500E+008, +6.18714395274E-001, +0.00000000000E+000
+2.17778250000E+008, +6.13441293435E-001, +0.00000000000E+000
+2.19653062500E+008, +6.09716270133E-001, +0.00000000000E+000
+2.21527875000E+008, +6.04739349578E-001, +0.00000000000E+000
+2.23402687500E+008, +6.00910701048E-001, +0.00000000000E+000
+2.25277500000E+008, +5.95898350149E-001, +0.00000000000E+000
+2.27152312500E+008, +5.92921849641E-001, +0.00000000000E+000
+2.29027125000E+008, +5.88063465624E-001, +0.00000000000E+000
+2.30901937500E+008, +5.86015424600E-001, +0.00000000000E+000
+2.32776750000E+008, +5.81073218211E-001, +0.00000000000E+000
+2.34651562500E+008, +5.78963164318E-001, +0.00000000000E+000
+2.36526375000E+008, +5.74599097792E-001, +0.00000000000E+000
+2.38401187500E+008, +5.72216628935E-001, +0.00000000000E+000
+2.40276000000E+008, +5.68900713035E-001, +0.00000000000E+000
+2.42150812500E+008, +5.67742891581E-001, +0.00000000000E+000
+2.44025625000E+008, +5.64879603856E-001, +0.00000000000E+000
+2.45900437500E+008, +5.65357028069E-001, +0.00000000000E+000
+2.47775250000E+008, +5.63015937207E-001, +0.00000000000E+000
+2.49650062500E+008, +5.61886324638E-001, +0.00000000000E+000
+2.51524875000E+008, +5.57651298399E-001, +0.00000000000E+000
+2.53399687500E+008, +5.58610368272E-001, +0.00000000000E+000
+2.55274500000E+008, +5.56697447307E-001, +0.00000000000E+000
+2.57149312500E+008, +5.56454376885E-001, +0.00000000000E+000
+2.59024125000E+008, +5.54805870150E-001, +0.00000000000E+000
+2.60898937500E+008, +5.54850007330E-001, +0.00000000000E+000
+2.62773750000E+008, +5.53381656835E-001, +0.00000000000E+000
+2.64648562500E+008, +5.54397889658E-001, +0.00000000000E+000
+2.66523375000E+008, +5.51475620185E-001, +0.00000000000E+000
+2.68398187500E+008, +5.53548840021E-001, +0.00000000000E+000
+2.70273000000E+008, +5.52843702801E-001, +0.00000000000E+000
+2.72147812500E+008, +5.54539072905E-001, +0.00000000000E+000
+2.74022625000E+008, +5.55136435168E-001, +0.00000000000E+000
+2.75897437500E+008, +5.58209358248E-001, +0.00000000000E+000
+2.77772250000E+008, +5.58056117302E-001, +0.00000000000E+000
+2.79647062500E+008, +5.62488261847E-001, +0.00000000000E+000
+2.81521875000E+008, +5.63372955677E-001, +0.00000000000E+000
+2.83396687500E+008, +5.67588823816E-001, +0.00000000000E+000
+2.85271500000E+008, +5.68770331014E-001, +0.00000000000E+000
+2.87146312500E+008, +5.73025516310E-001, +0.00000000000E+000
+2.89021125000E+008, +5.73489238633E-001, +0.00000000000E+000
+2.90895937500E+008, +5.77631773824E-001, +0.00000000000E+000
+2.92770750000E+008, +5.77813960126E-001, +0.00000000000E+000
+2.94645562500E+008, +5.83203755272E-001, +0.00000000000E+000
+2.96520375000E+008, +5.85576194386E-001, +0.00000000000E+000
+2.98395187500E+008, +5.91596202207E-001, +0.00000000000E+000
+3.00270000000E+008, +5.94360499300E-001, +0.00000000000E+000
+3.02144812500E+008, +5.98871273891E-001, +0.00000000000E+000
+3.04019625000E+008, +6.02720817942E-001, +0.00000000000E+000
+3.05894437500E+008, +6.07903406592E-001, +0.00000000000E+000
+3.07769250000E+008, +6.12153795958E-001, +0.00000000000E+000
+3.09644062500E+008, +6.20055488372E-001, +0.00000000000E+000
+3.11518875000E+008, +6.23013991721E-001, +0.00000000000E+000
+3.13393687500E+008, +6.30366262845E-001, +0.00000000000E+000
+3.15268500000E+008, +6.35650325193E-001, +0.00000000000E+000
+3.17143312500E+008, +6.42655835692E-001, +0.00000000000E+000
+3.19018125000E+008, +6.47848096177E-001, +0.00000000000E+000
+3.20892937500E+008, +6.54351784679E-001, +0.00000000000E+000
+3.22767750000E+008, +6.59380757016E-001, +0.00000000000E+000
+3.24642562500E+008, +6.66389308195E-001, +0.00000000000E+000
+3.26517375000E+008, +6.71888056959E-001, +0.00000000000E+000
+3.28392187500E+008, +6.79015087912E-001, +0.00000000000E+000
+3.30267000000E+008, +6.86118697457E-001, +0.00000000000E+000
+3.32141812500E+008, +6.95156060924E-001, +0.00000000000E+000
+3.34016625000E+008, +7.01214553255E-001, +0.00000000000E+000
+3.35891437500E+008, +7.09543132878E-001, +0.00000000000E+000
+3.37766250000E+008, +7.15840002923E-001, +0.00000000000E+000
+3.39641062500E+008, +7.26033016149E-001, +0.00000000000E+000
+3.41515875000E+008, +7.32044763901E-001, +0.00000000000E+000
+3.43390687500E+008, +7.40144188051E-001, +0.00000000000E+000
+3.45265500000E+008, +7.48884962352E-001, +0.00000000000E+000
+3.47140312500E+008, +7.57747830500E-001, +0.00000000000E+000
+3.49015125000E+008, +7.67027809492E-001, +0.00000000000E+000
+3.50889937500E+008, +7.78252022432E-001, +0.00000000000E+000
+3.52764750000E+008, +7.88305232730E-001, +0.00000000000E+000
+3.54639562500E+008, +7.99243998287E-001, +0.00000000000E+000
+3.56514375000E+008, +8.08360471284E-001, +0.00000000000E+000
+3.58389187500E+008, +8.19638319800E-001, +0.00000000000E+000
+3.60264000000E+008, +8.29963101661E-001, +0.00000000000E+000
+3.62138812500E+008, +8.41852030466E-001, +0.00000000000E+000
+3.64013625000E+008, +8.51292516773E-001, +0.00000000000E+000
+3.65888437500E+008, +8.62301148880E-001, +0.00000000000E+000
+3.67763250000E+008, +8.72064936197E-001, +0.00000000000E+000
+3.69638062500E+008, +8.83761039625E-001, +0.00000000000E+000
+3.71512875000E+008, +8.95425299195E-001, +0.00000000000E+000
+3.73387687500E+008, +9.06418556551E-001, +0.00000000000E+000
+3.75262500000E+008, +9.19314233182E-001, +0.00000000000E+000
+3.77137312500E+008, +9.31925762039E-001, +0.00000000000E+000
+3.79012125000E+008, +9.43334524290E-001, +0.00000000000E+000
+3.80886937500E+008, +9.56199871502E-001, +0.00000000000E+000
+3.82761750000E+008, +9.70369471572E-001, +0.00000000000E+000
+3.84636562500E+008, +9.84123197034E-001, +0.00000000000E+000
+3.86511375000E+008, +9.96446775284E-001, +0.00000000000E+000
+3.88386187500E+008, +1.00985095026E+000, +0.00000000000E+000
+3.90261000000E+008, +1.02431608174E+000, +0.00000000000E+000
+3.92135812500E+008, +1.03766719210E+000, +0.00000000000E+000
+3.94010625000E+008, +1.05162651226E+000, +0.00000000000E+000
+3.95885437500E+008, +1.06639014412E+000, +0.00000000000E+000
+3.97760250000E+008, +1.07989796891E+000, +0.00000000000E+000
+3.99635062500E+008, +1.09515980701E+000, +0.00000000000E+000
+4.01509875000E+008, +1.10915203305E+000, +0.00000000000E+000
+4.03384687500E+008, +1.12234098857E+000, +0.00000000000E+000
+4.05259500000E+008, +1.13562023031E+000, +0.00000000000E+000
+4.07134312500E+008, +1.15146383842E+000, +0.00000000000E+000
+4.09009125000E+008, +1.16354302431E+000, +0.00000000000E+000
+4.10883937500E+008, +1.17955849529E+000, +0.00000000000E+000
+4.12758750000E+008, +1.19459229774E+000, +0.00000000000E+000
+4.14633562500E+008, +1.21203962256E+000, +0.00000000000E+000
+4.16508375000E+008, +1.22780594849E+000, +0.00000000000E+000
+4.18383187500E+008, +1.24456069314E+000, +0.00000000000E+000
+4.20258000000E+008, +1.25969455960E+000, +0.00000000000E+000
+4.22132812500E+008, +1.27515580064E+000, +0.00000000000E+000
+4.24007625000E+008, +1.28939373322E+000, +0.00000000000E+000
+4.25882437500E+008, +1.30532748720E+000, +0.00000000000E+000
+4.27757250000E+008, +1.32055188654E+000, +0.00000000000E+000
+4.29632062500E+008, +1.33715309393E+000, +0.00000000000E+000
+4.31506875000E+008, +1.35274096687E+000, +0.00000000000E+000
+4.33381687500E+008, +1.36938351761E+000, +0.00000000000E+000
+4.35256500000E+008, +1.38546022666E+000, +0.00000000000E+000
+4.37131312500E+008, +1.40161309179E+000, +0.00000000000E+000
+4.39006125000E+008, +1.41743451545E+000, +0.00000000000E+000
+4.40880937500E+008, +1.43329582749E+000, +0.00000000000E+000
+4.42755750000E+008, +1.44787601455E+000, +0.00000000000E+000
+4.44630562500E+008, +1.46592897353E+000, +0.00000000000E+000
+4.46505375000E+008, +1.47928157565E+000, +0.00000000000E+000
+4.48380187500E+008, +1.49629371658E+000, +0.00000000000E+000
+4.50255000000E+008, +1.51243104471E+000, +0.00000000000E+000
+4.52129812500E+008, +1.53047960726E+000, +0.00000000000E+000
+4.54004625000E+008, +1.54501734338E+000, +0.00000000000E+000
+4.55879437500E+008, +1.56250335790E+000, +0.00000000000E+000
+4.57754250000E+008, +1.57787557390E+000, +0.00000000000E+000
+4.59629062500E+008, +1.59470204498E+000, +0.00000000000E+000
+4.61503875000E+008, +1.60801969591E+000, +0.00000000000E+000
+4.63378687500E+008, +1.62596126094E+000, +0.00000000000E+000
+4.65253500000E+008, +1.64153539646E+000, +0.00000000000E+000
+4.67128312500E+008, +1.65952144235E+000, +0.00000000000E+000
+4.69003125000E+008, +1.67455199403E+000, +0.00000000000E+000
+4.70877937500E+008, +1.69227476592E+000, +0.00000000000E+000
+4.72752750000E+008, +1.70964561915E+000, +0.00000000000E+000
+4.74627562500E+008, +1.72879181819E+000, +0.00000000000E+000
+4.76502375000E+008, +1.74561857663E+000, +0.00000000000E+000
+4.78377187500E+008, +1.76207532262E+000, +0.00000000000E+000
+4.80252000000E+008, +1.77925543259E+000, +0.00000000000E+000
+4.82126812500E+008, +1.79699402809E+000, +0.00000000000E+000
+4.84001625000E+008, +1.81450375897E+000, +0.00000000000E+000
+4.85876437500E+008, +1.83212845614E+000, +0.00000000000E+000
+4.87751250000E+008, +1.85088672841E+000, +0.00000000000E+000
+4.89626062500E+008, +1.86947735803E+000, +0.00000000000E+000
+4.91500875000E+008, +1.88572623195E+000, +0.00000000000E+000
+4.93375687500E+008, +1.90451126671E+000, +0.00000000000E+000
+4.95250500000E+008, +1.92311323166E+000, +0.00000000000E+000
+4.97125312500E+008, +1.94157081315E+000, +0.00000000000E+000
+4.99000125000E+008, +1.95957530375E+000, +0.00000000000E+000
+5.00874937500E+008, +1.97821483427E+000, +0.00000000000E+000
+5.02749750000E+008, +1.99631335873E+000, +0.00000000000E+000
+5.04624562500E+008, +2.01464937301E+000, +0.00000000000E+000
+5.06499375000E+008, +2.03276994159E+000, +0.00000000000E+000
+5.08374187500E+008, +2.05155173082E+000, +0.00000000000E+000
+5.10249000000E+008, +2.06655522249E+000, +0.00000000000E+000
+5.12123812500E+008, +2.08396666135E+000, +0.00000000000E+000
+5.13998625000E+008, +2.10039273054E+000, +0.00000000000E+000
+5.15873437500E+008, +2.12018170541E+000, +0.00000000000E+000
+5.17748250000E+008, +2.13829849281E+000, +0.00000000000E+000
+5.19623062500E+008, +2.15662784638E+000, +0.00000000000E+000
+5.21497875000E+008, +2.17360596401E+000, +0.00000000000E+000
+5.23372687500E+008, +2.19012509103E+000, +0.00000000000E+000
+5.25247500000E+008, +2.20976001320E+000, +0.00000000000E+000
+5.27122312500E+008, +2.22819347346E+000, +0.00000000000E+000
+5.28997125000E+008, +2.24557243730E+000, +0.00000000000E+000
+5.30871937500E+008, +2.26198207044E+000, +0.00000000000E+000
+5.32746750000E+008, +2.27972083847E+000, +0.00000000000E+000
+5.34621562500E+008, +2.29352997466E+000, +0.00000000000E+000
+5.36496375000E+008, +2.31004576085E+000, +0.00000000000E+000
+5.38371187500E+008, +2.32596308390E+000, +0.00000000000E+000
+5.40246000000E+008, +2.34242937483E+000, +0.00000000000E+000
+5.42120812500E+008, +2.35776982140E+000, +0.00000000000E+000
+5.43995625000E+008, +2.37361531232E+000, +0.00000000000E+000
+5.45870437500E+008, +2.38921695225E+000, +0.00000000000E+000
+5.47745250000E+008, +2.40455176104E+000, +0.00000000000E+000
+5.49620062500E+008, +2.42100018568E+000, +0.00000000000E+000
+5.51494875000E+008, +2.43708323828E+000, +0.00000000000E+000
+5.53369687500E+008, +2.45259498909E+000, +0.00000000000E+000
+5.55244500000E+008, +2.46839775546E+000, +0.00000000000E+000
+5.57119312500E+008, +2.48607964711E+000, +0.00000000000E+000
+5.58994125000E+008, +2.50266989722E+000, +0.00000000000E+000
+5.60868937500E+008, +2.51810304694E+000, +0.00000000000E+000
+5.62743750000E+008, +2.53310389835E+000, +0.00000000000E+000
+5.64618562500E+008, +2.54886584926E+000, +0.00000000000E+000
+5.66493375000E+008, +2.56307211439E+000, +0.00000000000E+000
+5.68368187500E+008, +2.57888008015E+000, +0.00000000000E+000
+5.70243000000E+008, +2.59422079911E+000, +0.00000000000E+000
+5.72117812500E+008, +2.60895329279E+000, +0.00000000000E+000
+5.73992625000E+008, +2.62260439703E+000, +0.00000000000E+000
+5.75867437500E+008, +2.63933145293E+000, +0.00000000000E+000
+5.77742250000E+008, +2.65633472013E+000, +0.00000000000E+000
+5.79617062500E+008, +2.67340484985E+000, +0.00000000000E+000
+5.81491875000E+008, +2.69034056976E+000, +0.00000000000E+000
+5.83366687500E+008, +2.70809149350E+000, +0.00000000000E+000
+5.85241500000E+008, +2.72248512471E+000, +0.00000000000E+000
+5.87116312500E+008, +2.73825015025E+000, +0.00000000000E+000
+5.88991125000E+008, +2.75467393756E+000, +0.00000000000E+000
+5.90865937500E+008, +2.77226359005E+000, +0.00000000000E+000
