"# Channel 3"
"# Trace 1"
Frequency, Formatted Data, Formatted Data
+3.00000000000E+005, -1.36621649553E-008, +0.00000000000E+000
+2.17481250000E+006, -5.40376686882E-009, +0.00000000000E+000
+4.04962500000E+006, -2.53381253750E-009, +0.00000000000E+000
+5.92443750000E+006, -8.19928084252E-010, +0.00000000000E+000
+7.79925000000E+006, +3.13401678103E-010, +0.00000000000E+000
+9.67406250000E+006, +1.23623391371E-009, +0.00000000000E+000
+1.15488750000E+007, +1.75716375388E-009, +0.00000000000E+000
+1.34236875000E+007, +2.14256358698E-009, +0.00000000000E+000
+1.52985000000E+007, +2.47642341308E-009, +0.00000000000E+000
+1.71733125000E+007, +2.76881462499E-009, +0.00000000000E+000
+1.90481250000E+007, +3.05089354787E-009, +0.00000000000E+000
+2.09229375000E+007, +3.34636903629E-009, +0.00000000000E+000
+2.27977500000E+007, +3.62920469176E-009, +0.00000000000E+000
+2.46725625000E+007, +4.51057937642E-009, +0.00000000000E+000
+2.65473750000E+007, +5.41121446739E-009, +0.00000000000E+000
+2.84221875000E+007, +5.34469327748E-009, +0.00000000000E+000
+3.02970000000E+007, +5.77575386590E-009, +0.00000000000E+000
+3.21718125000E+007, +6.05790358863E-009, +0.00000000000E+000
+3.40466250000E+007, +6.39574035656E-009, +0.00000000000E+000
+3.59214375000E+007, +6.82424365897E-009, +0.00000000000E+000
+3.77962500000E+007, +7.26479921088E-009, +0.00000000000E+000
+3.96710625000E+007, +7.72706940608E-009, +0.00000000000E+000
+4.15458750000E+007, +8.24532421700E-009, +0.00000000000E+000
+4.34206875000E+007, +8.71506715489E-009, +0.00000000000E+000
+4.52955000000E+007, +9.22069103755E-009, +0.00000000000E+000
+4.71703125000E+007, +9.72460757695E-009, +0.00000000000E+000
+4.90451250000E+007, +1.01405303660E-008, +0.00000000000E+000
+5.09199375000E+007, +1.05089158561E-008, +0.00000000000E+000
+5.27947500000E+007, +1.08170606173E-008, +0.00000000000E+000
+5.46695625000E+007, +1.10040943633E-008, +0.00000000000E+000
+5.65443750000E+007, +1.12184987819E-008, +0.00000000000E+000
+5.84191875000E+007, +1.13325724703E-008, +0.00000000000E+000
+6.02940000000E+007, +1.14445913935E-008, +0.00000000000E+000
+6.21688125000E+007, +1.14968866054E-008, +0.00000000000E+000
+6.40436250000E+007, +1.15342257717E-008, +0.00000000000E+000
+6.59184375000E+007, +1.14908342709E-008, +0.00000000000E+000
+6.77932500000E+007, +1.14928196356E-008, +0.00000000000E+000
+6.96680625000E+007, +1.14209013131E-008, +0.00000000000E+000
+7.15428750000E+007, +1.13123755384E-008, +0.00000000000E+000
+7.34176875000E+007, +1.11532804708E-008, +0.00000000000E+000
+7.52925000000E+007, +1.09872683077E-008, +0.00000000000E+000
+7.71673125000E+007, +1.07775605706E-008, +0.00000000000E+000
+7.90421250000E+007, +1.04866160697E-008, +0.00000000000E+000
+8.09169375000E+007, +1.01667533560E-008, +0.00000000000E+000
+8.27917500000E+007, +9.78450310594E-009, +0.00000000000E+000
+8.46665625000E+007, +9.36565259440E-009, +0.00000000000E+000
+8.65413750000E+007, +8.86803382324E-009, +0.00000000000E+000
+8.84161875000E+007, +8.29578193313E-009, +0.00000000000E+000
+9.02910000000E+007, +7.76658617149E-009, +0.00000000000E+000
+9.21658125000E+007, +7.21654524256E-009, +0.00000000000E+000
+9.40406250000E+007, +6.69872768784E-009, +0.00000000000E+000
+9.59154375000E+007, +6.23510547885E-009, +0.00000000000E+000
+9.77902500000E+007, +5.84186526081E-009, +0.00000000000E+000
+9.96650625000E+007, +5.47712245426E-009, +0.00000000000E+000
+1.01539875000E+008, +5.22911532870E-009, +0.00000000000E+000
+1.03414687500E+008, +4.96164876525E-009, +0.00000000000E+000
+1.05289500000E+008, +4.77072880339E-009, +0.00000000000E+000
+1.07164312500E+008, +4.56646056401E-009, +0.00000000000E+000
+1.09039125000E+008, +4.42339116166E-009, +0.00000000000E+000
+1.10913937500E+008, +4.26257133396E-009, +0.00000000000E+000
+1.12788750000E+008, +4.17896833200E-009, +0.00000000000E+000
+1.14663562500E+008, +4.03335776352E-009, +0.00000000000E+000
+1.16538375000E+008, +3.97452937754E-009, +0.00000000000E+000
+1.18413187500E+008, +3.87568549761E-009, +0.00000000000E+000
+1.20288000000E+008, +3.80460872736E-009, +0.00000000000E+000
+1.22162812500E+008, +3.72200415151E-009, +0.00000000000E+000
+1.24037625000E+008, +3.66555856645E-009, +0.00000000000E+000
+1.25912437500E+008, +3.62019183350E-009, +0.00000000000E+000
+1.27787250000E+008, +3.56011411035E-009, +0.00000000000E+000
+1.29662062500E+008, +3.50350916676E-009, +0.00000000000E+000
+1.31536875000E+008, +3.46074176127E-009, +0.00000000000E+000
+1.33411687500E+008, +3.41401662851E-009, +0.00000000000E+000
+1.35286500000E+008, +3.37842015623E-009, +0.00000000000E+000
+1.37161312500E+008, +3.32234968407E-009, +0.00000000000E+000
+1.39036125000E+008, +3.27728924480E-009, +0.00000000000E+000
+1.40910937500E+008, +3.23319153063E-009, +0.00000000000E+000
+1.42785750000E+008, +3.19678243269E-009, +0.00000000000E+000
+1.44660562500E+008, +3.14762284437E-009, +0.00000000000E+000
+1.46535375000E+008, +3.11507645702E-009, +0.00000000000E+000
+1.48410187500E+008, +3.09193385351E-009, +0.00000000000E+000
+1.50285000000E+008, +3.04252494784E-009, +0.00000000000E+000
+1.52159812500E+008, +3.00306152501E-009, +0.00000000000E+000
+1.54034625000E+008, +2.93790838140E-009, +0.00000000000E+000
+1.55909437500E+008, +2.92795389325E-009, +0.00000000000E+000
+1.57784250000E+008, +2.87953055539E-009, +0.00000000000E+000
+1.59659062500E+008, +2.86806532849E-009, +0.00000000000E+000
+1.61533875000E+008, +2.79756597351E-009, +0.00000000000E+000
+1.63408687500E+008, +2.75689099111E-009, +0.00000000000E+000
+1.65283500000E+008, +2.70138186015E-009, +0.00000000000E+000
+1.67158312500E+008, +2.67495166307E-009, +0.00000000000E+000
+1.69033125000E+008, +2.61754012866E-009, +0.00000000000E+000
+1.70907937500E+008, +2.57134204598E-009, +0.00000000000E+000
+1.72782750000E+008, +2.49647977969E-009, +0.00000000000E+000
+1.74657562500E+008, +2.47776207076E-009, +0.00000000000E+000
+1.76532375000E+008, +2.39275021916E-009, +0.00000000000E+000
+1.78407187500E+008, +2.34292905248E-009, +0.00000000000E+000
+1.80282000000E+008, +2.26620714886E-009, +0.00000000000E+000
+1.82156812500E+008, +2.20260506690E-009, +0.00000000000E+000
+1.84031625000E+008, +2.12390596573E-009, +0.00000000000E+000
+1.85906437500E+008, +2.07993842130E-009, +0.00000000000E+000
+1.87781250000E+008, +1.91403609783E-009, +0.00000000000E+000
+1.89656062500E+008, +1.91666669000E-009, +0.00000000000E+000
+1.91530875000E+008, +1.76640721851E-009, +0.00000000000E+000
+1.93405687500E+008, +1.68041357813E-009, +0.00000000000E+000
+1.95280500000E+008, +1.45319711106E-009, +0.00000000000E+000
+1.97155312500E+008, +1.36488271033E-009, +0.00000000000E+000
+1.99030125000E+008, +1.19422946671E-009, +0.00000000000E+000
+2.00904937500E+008, +1.03226026659E-009, +0.00000000000E+000
+2.02779750000E+008, +7.16855554931E-010, +0.00000000000E+000
+2.04654562500E+008, +5.81049566656E-010, +0.00000000000E+000
+2.06529375000E+008, +2.23791675381E-010, +0.00000000000E+000
+2.08404187500E+008, -1.84042108635E-010, +0.00000000000E+000
+2.10279000000E+008, -5.53980598787E-010, +0.00000000000E+000
+2.12153812500E+008, -8.96969430125E-010, +0.00000000000E+000
+2.14028625000E+008, -1.59653224687E-009, +0.00000000000E+000
+2.15903437500E+008, -2.13388075524E-009, +0.00000000000E+000
+2.17778250000E+008, -2.81379031939E-009, +0.00000000000E+000
+2.19653062500E+008, -3.22210370997E-009, +0.00000000000E+000
+2.21527875000E+008, -3.82835072726E-009, +0.00000000000E+000
+2.23402687500E+008, -4.20582149041E-009, +0.00000000000E+000
+2.25277500000E+008, -4.63645779447E-009, +0.00000000000E+000
+2.27152312500E+008, -4.87087450915E-009, +0.00000000000E+000
+2.29027125000E+008, -5.18178335658E-009, +0.00000000000E+000
+2.30901937500E+008, -5.41301843488E-009, +0.00000000000E+000
+2.32776750000E+008, -5.69882503037E-009, +0.00000000000E+000
+2.34651562500E+008, -5.67596757440E-009, +0.00000000000E+000
+2.36526375000E+008, -5.90817229625E-009, +0.00000000000E+000
+2.38401187500E+008, -5.99423537900E-009, +0.00000000000E+000
+2.40276000000E+008, -6.02406384546E-009, +0.00000000000E+000
+2.42150812500E+008, -6.00338536307E-009, +0.00000000000E+000
+2.44025625000E+008, -6.02563650502E-009, +0.00000000000E+000
+2.45900437500E+008, -5.96789452559E-009, +0.00000000000E+000
+2.47775250000E+008, -6.01278692267E-009, +0.00000000000E+000
+2.49650062500E+008, -5.81254409735E-009, +0.00000000000E+000
+2.51524875000E+008, -5.82725912995E-009, +0.00000000000E+000
+2.53399687500E+008, -5.62406248458E-009, +0.00000000000E+000
+2.55274500000E+008, -5.30638502571E-009, +0.00000000000E+000
+2.57149312500E+008, -5.09333945676E-009, +0.00000000000E+000
+2.59024125000E+008, -4.86084534101E-009, +0.00000000000E+000
+2.60898937500E+008, -4.30398202147E-009, +0.00000000000E+000
+2.62773750000E+008, -3.90917501241E-009, +0.00000000000E+000
+2.64648562500E+008, -3.28974537434E-009, +0.00000000000E+000
+2.66523375000E+008, -3.05008002944E-009, +0.00000000000E+000
+2.68398187500E+008, -2.54794654495E-009, +0.00000000000E+000
+2.70273000000E+008, -2.27767436358E-009, +0.00000000000E+000
+2.72147812500E+008, -1.99849332064E-009, +0.00000000000E+000
+2.74022625000E+008, -1.86423608605E-009, +0.00000000000E+000
+2.75897437500E+008, -1.66302290257E-009, +0.00000000000E+000
+2.77772250000E+008, -1.54999514599E-009, +0.00000000000E+000
+2.79647062500E+008, -1.36613437129E-009, +0.00000000000E+000
+2.81521875000E+008, -1.41982432307E-009, +0.00000000000E+000
+2.83396687500E+008, -1.35536709349E-009, +0.00000000000E+000
+2.85271500000E+008, -1.31750637954E-009, +0.00000000000E+000
+2.87146312500E+008, -1.34246016426E-009, +0.00000000000E+000
+2.89021125000E+008, -1.31672432130E-009, +0.00000000000E+000
+2.90895937500E+008, -1.38502424209E-009, +0.00000000000E+000
+2.92770750000E+008, -1.43934068541E-009, +0.00000000000E+000
+2.94645562500E+008, -1.36094717196E-009, +0.00000000000E+000
+2.96520375000E+008, -1.39656539932E-009, +0.00000000000E+000
+2.98395187500E+008, -1.36079567889E-009, +0.00000000000E+000
+3.00270000000E+008, -1.37785440113E-009, +0.00000000000E+000
+3.02144812500E+008, -1.38545073485E-009, +0.00000000000E+000
+3.04019625000E+008, -1.35135081553E-009, +0.00000000000E+000
+3.05894437500E+008, -1.28450500057E-009, +0.00000000000E+000
+3.07769250000E+008, -1.28547181051E-009, +0.00000000000E+000
+3.09644062500E+008, -1.22230155390E-009, +0.00000000000E+000
+3.11518875000E+008, -1.24175381038E-009, +0.00000000000E+000
+3.13393687500E+008, -1.12089678702E-009, +0.00000000000E+000
+3.15268500000E+008, -1.08845680084E-009, +0.00000000000E+000
+3.17143312500E+008, -9.96007140607E-010, +0.00000000000E+000
+3.19018125000E+008, -9.24578756103E-010, +0.00000000000E+000
+3.20892937500E+008, -8.15076878686E-010, +0.00000000000E+000
+3.22767750000E+008, -7.46176456812E-010, +0.00000000000E+000
+3.24642562500E+008, -6.39054967894E-010, +0.00000000000E+000
+3.26517375000E+008, -5.64914121032E-010, +0.00000000000E+000
+3.28392187500E+008, -4.56696008652E-010, +0.00000000000E+000
+3.30267000000E+008, -3.55140459266E-010, +0.00000000000E+000
+3.32141812500E+008, -2.39531530777E-010, +0.00000000000E+000
+3.34016625000E+008, -1.73558294165E-010, +0.00000000000E+000
+3.35891437500E+008, -7.20264850221E-011, +0.00000000000E+000
+3.37766250000E+008, +5.02646387804E-011, +0.00000000000E+000
+3.39641062500E+008, +1.56760220379E-010, +0.00000000000E+000
+3.41515875000E+008, +2.49479903029E-010, +0.00000000000E+000
+3.43390687500E+008, +3.30598815391E-010, +0.00000000000E+000
+3.45265500000E+008, +4.01489996099E-010, +0.00000000000E+000
+3.47140312500E+008, +4.96353639666E-010, +0.00000000000E+000
+3.49015125000E+008, +5.80959263861E-010, +0.00000000000E+000
+3.50889937500E+008, +6.52310150954E-010, +0.00000000000E+000
+3.52764750000E+008, +6.63042764030E-010, +0.00000000000E+000
+3.54639562500E+008, +7.80895902701E-010, +0.00000000000E+000
+3.56514375000E+008, +8.23321288794E-010, +0.00000000000E+000
+3.58389187500E+008, +8.84511936283E-010, +0.00000000000E+000
+3.60264000000E+008, +9.21160076287E-010, +0.00000000000E+000
+3.62138812500E+008, +9.76689145500E-010, +0.00000000000E+000
+3.64013625000E+008, +1.01234814303E-009, +0.00000000000E+000
+3.65888437500E+008, +1.07626345278E-009, +0.00000000000E+000
+3.67763250000E+008, +1.07997559976E-009, +0.00000000000E+000
+3.69638062500E+008, +1.15151073401E-009, +0.00000000000E+000
+3.71512875000E+008, +1.17912232938E-009, +0.00000000000E+000
+3.73387687500E+008, +1.20727412946E-009, +0.00000000000E+000
+3.75262500000E+008, +1.23040519425E-009, +0.00000000000E+000
+3.77137312500E+008, +1.26747401888E-009, +0.00000000000E+000
+3.79012125000E+008, +1.29154494127E-009, +0.00000000000E+000
+3.80886937500E+008, +1.33673520915E-009, +0.00000000000E+000
+3.82761750000E+008, +1.34921739526E-009, +0.00000000000E+000
+3.84636562500E+008, +1.38661599988E-009, +0.00000000000E+000
+3.86511375000E+008, +1.40550018368E-009, +0.00000000000E+000
+3.88386187500E+008, +1.45013372644E-009, +0.00000000000E+000
+3.90261000000E+008, +1.45089444934E-009, +0.00000000000E+000
+3.92135812500E+008, +1.48606023207E-009, +0.00000000000E+000
+3.94010625000E+008, +1.49933537105E-009, +0.00000000000E+000
+3.95885437500E+008, +1.52488185643E-009, +0.00000000000E+000
+3.97760250000E+008, +1.54675811239E-009, +0.00000000000E+000
+3.99635062500E+008, +1.58795340878E-009, +0.00000000000E+000
+4.01509875000E+008, +1.57943576114E-009, +0.00000000000E+000
+4.03384687500E+008, +1.62844442160E-009, +0.00000000000E+000
+4.05259500000E+008, +1.63992098458E-009, +0.00000000000E+000
+4.07134312500E+008, +1.66747537614E-009, +0.00000000000E+000
+4.09009125000E+008, +1.66669010740E-009, +0.00000000000E+000
+4.10883937500E+008, +1.70319562024E-009, +0.00000000000E+000
+4.12758750000E+008, +1.71880920482E-009, +0.00000000000E+000
+4.14633562500E+008, +1.74211620946E-009, +0.00000000000E+000
+4.16508375000E+008, +1.72765881201E-009, +0.00000000000E+000
+4.18383187500E+008, +1.76326222065E-009, +0.00000000000E+000
+4.20258000000E+008, +1.77290101330E-009, +0.00000000000E+000
+4.22132812500E+008, +1.80339649625E-009, +0.00000000000E+000
+4.24007625000E+008, +1.79621380648E-009, +0.00000000000E+000
+4.25882437500E+008, +1.82955877767E-009, +0.00000000000E+000
+4.27757250000E+008, +1.83369923415E-009, +0.00000000000E+000
+4.29632062500E+008, +1.86872198136E-009, +0.00000000000E+000
+4.31506875000E+008, +1.85664041775E-009, +0.00000000000E+000
+4.33381687500E+008, +1.88579662253E-009, +0.00000000000E+000
+4.35256500000E+008, +1.88745665950E-009, +0.00000000000E+000
+4.37131312500E+008, +1.92339460085E-009, +0.00000000000E+000
+4.39006125000E+008, +1.91525136036E-009, +0.00000000000E+000
+4.40880937500E+008, +1.96578840669E-009, +0.00000000000E+000
+4.42755750000E+008, +1.95753088718E-009, +0.00000000000E+000
+4.44630562500E+008, +1.98099511668E-009, +0.00000000000E+000
+4.46505375000E+008, +1.97524782293E-009, +0.00000000000E+000
+4.48380187500E+008, +1.99652326144E-009, +0.00000000000E+000
+4.50255000000E+008, +1.99677520284E-009, +0.00000000000E+000
+4.52129812500E+008, +2.03688565417E-009, +0.00000000000E+000
+4.54004625000E+008, +2.03669386460E-009, +0.00000000000E+000
+4.55879437500E+008, +2.05677168731E-009, +0.00000000000E+000
+4.57754250000E+008, +2.04940982457E-009, +0.00000000000E+000
+4.59629062500E+008, +2.06268265142E-009, +0.00000000000E+000
+4.61503875000E+008, +2.07201426888E-009, +0.00000000000E+000
+4.63378687500E+008, +2.08719611677E-009, +0.00000000000E+000
+4.65253500000E+008, +2.10444535468E-009, +0.00000000000E+000
+4.67128312500E+008, +2.10348603430E-009, +0.00000000000E+000
+4.69003125000E+008, +2.12461477192E-009, +0.00000000000E+000
+4.70877937500E+008, +2.14700880385E-009, +0.00000000000E+000
+4.72752750000E+008, +2.16630367717E-009, +0.00000000000E+000
+4.74627562500E+008, +2.16808496891E-009, +0.00000000000E+000
+4.76502375000E+008, +2.18751700874E-009, +0.00000000000E+000
+4.78377187500E+008, +2.22119919648E-009, +0.00000000000E+000
+4.80252000000E+008, +2.21789982597E-009, +0.00000000000E+000
+4.82126812500E+008, +2.22621807627E-009, +0.00000000000E+000
+4.84001625000E+008, +2.24986328913E-009, +0.00000000000E+000
+4.85876437500E+008, +2.28095898561E-009, +0.00000000000E+000
+4.87751250000E+008, +2.28122281128E-009, +0.00000000000E+000
+4.89626062500E+008, +2.29972154520E-009, +0.00000000000E+000
+4.91500875000E+008, +2.35647351336E-009, +0.00000000000E+000
+4.93375687500E+008, +2.37791653399E-009, +0.00000000000E+000
+4.95250500000E+008, +2.43477382621E-009, +0.00000000000E+000
+4.97125312500E+008, +2.47034776253E-009, +0.00000000000E+000
+4.99000125000E+008, +2.54244370744E-009, +0.00000000000E+000
+5.00874937500E+008, +2.63940163301E-009, +0.00000000000E+000
+5.02749750000E+008, +2.82128384557E-009, +0.00000000000E+000
+5.04624562500E+008, +2.92923937999E-009, +0.00000000000E+000
+5.06499375000E+008, +3.30638308290E-009, +0.00000000000E+000
+5.08374187500E+008, +4.07297583793E-009, +0.00000000000E+000
+5.10249000000E+008, +6.05918326846E-009, +0.00000000000E+000
+5.12123812500E+008, +9.50166395332E-009, +0.00000000000E+000
+5.13998625000E+008, +1.09176125211E-008, +0.00000000000E+000
+5.15873437500E+008, +1.16732394120E-008, +0.00000000000E+000
+5.17748250000E+008, +1.19784580697E-008, +0.00000000000E+000
+5.19623062500E+008, +1.21275348868E-008, +0.00000000000E+000
+5.21497875000E+008, +1.22709191838E-008, +0.00000000000E+000
+5.23372687500E+008, +1.23972265649E-008, +0.00000000000E+000
+5.25247500000E+008, +1.23963189179E-008, +0.00000000000E+000
+5.27122312500E+008, +1.24721820975E-008, +0.00000000000E+000
+5.28997125000E+008, +1.24683576518E-008, +0.00000000000E+000
+5.30871937500E+008, +1.24986624592E-008, +0.00000000000E+000
+5.32746750000E+008, +1.25158524462E-008, +0.00000000000E+000
+5.34621562500E+008, +1.25277385038E-008, +0.00000000000E+000
+5.36496375000E+008, +1.25470247945E-008, +0.00000000000E+000
+5.38371187500E+008, +1.24948096685E-008, +0.00000000000E+000
+5.40246000000E+008, +1.25190941979E-008, +0.00000000000E+000
+5.42120812500E+008, +1.24572844639E-008, +0.00000000000E+000
+5.43995625000E+008, +1.24510580158E-008, +0.00000000000E+000
+5.45870437500E+008, +1.23709127412E-008, +0.00000000000E+000
+5.47745250000E+008, +1.23265523424E-008, +0.00000000000E+000
+5.49620062500E+008, +1.21376995314E-008, +0.00000000000E+000
+5.51494875000E+008, +1.20624145485E-008, +0.00000000000E+000
+5.53369687500E+008, +1.16919531638E-008, +0.00000000000E+000
+5.55244500000E+008, +1.09457947941E-008, +0.00000000000E+000
+5.57119312500E+008, +8.98282352825E-009, +0.00000000000E+000
+5.58994125000E+008, +5.54639449876E-009, +0.00000000000E+000
+5.60868937500E+008, +4.15886294094E-009, +0.00000000000E+000
+5.62743750000E+008, +3.40955684224E-009, +0.00000000000E+000
+5.64618562500E+008, +3.11185856003E-009, +0.00000000000E+000
+5.66493375000E+008, +2.96321572809E-009, +0.00000000000E+000
+5.68368187500E+008, +2.85190163854E-009, +0.00000000000E+000
+5.70243000000E+008, +2.72511020367E-009, +0.00000000000E+000
+5.72117812500E+008, +2.71764424166E-009, +0.00000000000E+000
+5.73992625000E+008, +2.66559248462E-009, +0.00000000000E+000
+5.75867437500E+008, +2.68424463870E-009, +0.00000000000E+000
+5.77742250000E+008, +2.64250781481E-009, +0.00000000000E+000
+5.79617062500E+008, +2.64492004040E-009, +0.00000000000E+000
+5.81491875000E+008, +2.61560523885E-009, +0.00000000000E+000
+5.83366687500E+008, +2.60727892989E-009, +0.00000000000E+000
+5.85241500000E+008, +2.62304536282E-009, +0.00000000000E+000
+5.87116312500E+008, +2.59440900302E-009, +0.00000000000E+000
+5.88991125000E+008, +2.62420510887E-009, +0.00000000000E+000
+5.90865937500E+008, +2.60916808326E-009, +0.00000000000E+000
