"# Channel 2"
"# Trace 1"
Frequency, Formatted Data, Formatted Data
+3.00000000000E+005, +8.66816291764E+000, +0.00000000000E+000
+2.17481250000E+006, +1.12715310500E+000, +0.00000000000E+000
+4.04962500000E+006, -2.16061527849E+000, +0.00000000000E+000
+5.92443750000E+006, -4.98239374157E+000, +0.00000000000E+000
+7.79925000000E+006, -7.75175036767E+000, +0.00000000000E+000
+9.67406250000E+006, -1.07359120443E+001, +0.00000000000E+000
+1.15488750000E+007, -1.37731603919E+001, +0.00000000000E+000
+1.34236875000E+007, -1.67654584160E+001, +0.00000000000E+000
+1.52985000000E+007, -1.97758597401E+001, +0.00000000000E+000
+1.71733125000E+007, -2.28286079507E+001, +0.00000000000E+000
+1.90481250000E+007, -2.59365171480E+001, +0.00000000000E+000
+2.09229375000E+007, -2.91624611236E+001, +0.00000000000E+000
+2.27977500000E+007, -3.25244196750E+001, +0.00000000000E+000
+2.46725625000E+007, -3.59888161251E+001, +0.00000000000E+000
+2.65473750000E+007, -3.93793051370E+001, +0.00000000000E+000
+2.84221875000E+007, -4.26311212739E+001, +0.00000000000E+000
+3.02970000000E+007, -4.61626201241E+001, +0.00000000000E+000
+3.21718125000E+007, -4.98028989090E+001, +0.00000000000E+000
+3.40466250000E+007, -5.36021221483E+001, +0.00000000000E+000
+3.59214375000E+007, -5.75773032382E+001, +0.00000000000E+000
+3.77962500000E+007, -6.17734983001E+001, +0.00000000000E+000
+3.96710625000E+007, -6.61962620541E+001, +0.00000000000E+000
+4.15458750000E+007, -7.09036183003E+001, +0.00000000000E+000
+4.34206875000E+007, -7.59053681103E+001, +0.00000000000E+000
+4.52955000000E+007, -8.13050419917E+001, +0.00000000000E+000
+4.71703125000E+007, -8.71294096512E+001, +0.00000000000E+000
+4.90451250000E+007, -9.34238884938E+001, +0.00000000000E+000
+5.09199375000E+007, -1.00135769848E+002, +0.00000000000E+000
+5.27947500000E+007, -1.07249993916E+002, +0.00000000000E+000
+5.46695625000E+007, -1.14694388987E+002, +0.00000000000E+000
+5.65443750000E+007, -1.22420013149E+002, +0.00000000000E+000
+5.84191875000E+007, -1.30385660266E+002, +0.00000000000E+000
+6.02940000000E+007, -1.38528816829E+002, +0.00000000000E+000
+6.21688125000E+007, -1.46851229443E+002, +0.00000000000E+000
+6.40436250000E+007, -1.55268300819E+002, +0.00000000000E+000
+6.59184375000E+007, -1.63771435463E+002, +0.00000000000E+000
+6.77932500000E+007, -1.72355562705E+002, +0.00000000000E+000
+6.96680625000E+007, +1.78997131682E+002, +0.00000000000E+000
+7.15428750000E+007, +1.70343414619E+002, +0.00000000000E+000
+7.34176875000E+007, +1.61689268833E+002, +0.00000000000E+000
+7.52925000000E+007, +1.53054621736E+002, +0.00000000000E+000
+7.71673125000E+007, +1.44458167779E+002, +0.00000000000E+000
+7.90421250000E+007, +1.35901791223E+002, +0.00000000000E+000
+8.09169375000E+007, +1.27425464062E+002, +0.00000000000E+000
+8.27917500000E+007, +1.19041626786E+002, +0.00000000000E+000
+8.46665625000E+007, +1.10828748725E+002, +0.00000000000E+000
+8.65413750000E+007, +1.02794483736E+002, +0.00000000000E+000
+8.84161875000E+007, +9.50272428965E+001, +0.00000000000E+000
+9.02910000000E+007, +8.75353407508E+001, +0.00000000000E+000
+9.21658125000E+007, +8.04185611004E+001, +0.00000000000E+000
+9.40406250000E+007, +7.36975370085E+001, +0.00000000000E+000
+9.59154375000E+007, +6.74147030592E+001, +0.00000000000E+000
+9.77902500000E+007, +6.15454559201E+001, +0.00000000000E+000
+9.96650625000E+007, +5.60704572676E+001, +0.00000000000E+000
+1.01539875000E+008, +5.09349143916E+001, +0.00000000000E+000
+1.03414687500E+008, +4.61105459227E+001, +0.00000000000E+000
+1.05289500000E+008, +4.15519293443E+001, +0.00000000000E+000
+1.07164312500E+008, +3.72247492379E+001, +0.00000000000E+000
+1.09039125000E+008, +3.31398858218E+001, +0.00000000000E+000
+1.10913937500E+008, +2.92364677691E+001, +0.00000000000E+000
+1.12788750000E+008, +2.55624735596E+001, +0.00000000000E+000
+1.14663562500E+008, +2.20949749807E+001, +0.00000000000E+000
+1.16538375000E+008, +1.88693427108E+001, +0.00000000000E+000
+1.18413187500E+008, +1.58525733636E+001, +0.00000000000E+000
+1.20288000000E+008, +1.30880370938E+001, +0.00000000000E+000
+1.22162812500E+008, +1.05616990369E+001, +0.00000000000E+000
+1.24037625000E+008, +8.30657369997E+000, +0.00000000000E+000
+1.25912437500E+008, +6.30593030775E+000, +0.00000000000E+000
+1.27787250000E+008, +4.57068485240E+000, +0.00000000000E+000
+1.29662062500E+008, +3.06982737204E+000, +0.00000000000E+000
+1.31536875000E+008, +1.78876651808E+000, +0.00000000000E+000
+1.33411687500E+008, +7.07909596001E-001, +0.00000000000E+000
+1.35286500000E+008, -1.87230218592E-001, +0.00000000000E+000
+1.37161312500E+008, -9.32720078590E-001, +0.00000000000E+000
+1.39036125000E+008, -1.54090561136E+000, +0.00000000000E+000
+1.40910937500E+008, -2.04793678983E+000, +0.00000000000E+000
+1.42785750000E+008, -2.46189670572E+000, +0.00000000000E+000
+1.44660562500E+008, -2.82164277919E+000, +0.00000000000E+000
+1.46535375000E+008, -3.14387371602E+000, +0.00000000000E+000
+1.48410187500E+008, -3.43161723624E+000, +0.00000000000E+000
+1.50285000000E+008, -3.72695979303E+000, +0.00000000000E+000
+1.52159812500E+008, -4.02862307291E+000, +0.00000000000E+000
+1.54034625000E+008, -4.37533413020E+000, +0.00000000000E+000
+1.55909437500E+008, -4.76411861612E+000, +0.00000000000E+000
+1.57784250000E+008, -5.23465240583E+000, +0.00000000000E+000
+1.59659062500E+008, -5.80120270284E+000, +0.00000000000E+000
+1.61533875000E+008, -6.48878542845E+000, +0.00000000000E+000
+1.63408687500E+008, -7.31873662176E+000, +0.00000000000E+000
+1.65283500000E+008, -8.31439817967E+000, +0.00000000000E+000
+1.67158312500E+008, -9.50286319294E+000, +0.00000000000E+000
+1.69033125000E+008, -1.09043205391E+001, +0.00000000000E+000
+1.70907937500E+008, -1.25447174650E+001, +0.00000000000E+000
+1.72782750000E+008, -1.44106992392E+001, +0.00000000000E+000
+1.74657562500E+008, -1.65253702244E+001, +0.00000000000E+000
+1.76532375000E+008, -1.88643329682E+001, +0.00000000000E+000
+1.78407187500E+008, -2.14164081021E+001, +0.00000000000E+000
+1.80282000000E+008, -2.41804037573E+001, +0.00000000000E+000
+1.82156812500E+008, -2.71216514328E+001, +0.00000000000E+000
+1.84031625000E+008, -3.02306356020E+001, +0.00000000000E+000
+1.85906437500E+008, -3.34869370364E+001, +0.00000000000E+000
+1.87781250000E+008, -3.68724417223E+001, +0.00000000000E+000
+1.89656062500E+008, -4.03742854261E+001, +0.00000000000E+000
+1.91530875000E+008, -4.39828791136E+001, +0.00000000000E+000
+1.93405687500E+008, -4.76560572017E+001, +0.00000000000E+000
+1.95280500000E+008, -5.14228124852E+001, +0.00000000000E+000
+1.97155312500E+008, -5.52490691823E+001, +0.00000000000E+000
+1.99030125000E+008, -5.91376281288E+001, +0.00000000000E+000
+2.00904937500E+008, -6.30687743519E+001, +0.00000000000E+000
+2.02779750000E+008, -6.70491762879E+001, +0.00000000000E+000
+2.04654562500E+008, -7.10545528756E+001, +0.00000000000E+000
+2.06529375000E+008, -7.51034642322E+001, +0.00000000000E+000
+2.08404187500E+008, -7.91652417261E+001, +0.00000000000E+000
+2.10279000000E+008, -8.32553711474E+001, +0.00000000000E+000
+2.12153812500E+008, -8.73563044762E+001, +0.00000000000E+000
+2.14028625000E+008, -9.14637817996E+001, +0.00000000000E+000
+2.15903437500E+008, -9.55694007627E+001, +0.00000000000E+000
+2.17778250000E+008, -9.96683312696E+001, +0.00000000000E+000
+2.19653062500E+008, -1.03744787955E+002, +0.00000000000E+000
+2.21527875000E+008, -1.07795560121E+002, +0.00000000000E+000
+2.23402687500E+008, -1.11773847456E+002, +0.00000000000E+000
+2.25277500000E+008, -1.15646363427E+002, +0.00000000000E+000
+2.27152312500E+008, -1.19326566809E+002, +0.00000000000E+000
+2.29027125000E+008, -1.22596204817E+002, +0.00000000000E+000
+2.30901937500E+008, -1.24707410980E+002, +0.00000000000E+000
+2.32776750000E+008, -1.24529576427E+002, +0.00000000000E+000
+2.34651562500E+008, -1.23088226434E+002, +0.00000000000E+000
+2.36526375000E+008, -1.21207614463E+002, +0.00000000000E+000
+2.38401187500E+008, -1.19083329537E+002, +0.00000000000E+000
+2.40276000000E+008, -1.16858323083E+002, +0.00000000000E+000
+2.42150812500E+008, -1.14537277006E+002, +0.00000000000E+000
+2.44025625000E+008, -1.12186670896E+002, +0.00000000000E+000
+2.45900437500E+008, -1.09783549660E+002, +0.00000000000E+000
+2.47775250000E+008, -1.07372137787E+002, +0.00000000000E+000
+2.49650062500E+008, -1.04925502095E+002, +0.00000000000E+000
+2.51524875000E+008, -1.02475358800E+002, +0.00000000000E+000
+2.53399687500E+008, -9.99998719809E+001, +0.00000000000E+000
+2.55274500000E+008, -9.75291749630E+001, +0.00000000000E+000
+2.57149312500E+008, -9.50466950022E+001, +0.00000000000E+000
+2.59024125000E+008, -9.25704249635E+001, +0.00000000000E+000
+2.60898937500E+008, -9.00846386101E+001, +0.00000000000E+000
+2.62773750000E+008, -8.76221735510E+001, +0.00000000000E+000
+2.64648562500E+008, -8.51596383991E+001, +0.00000000000E+000
+2.66523375000E+008, -8.27210182348E+001, +0.00000000000E+000
+2.68398187500E+008, -8.03041750332E+001, +0.00000000000E+000
+2.70273000000E+008, -7.79681603317E+001, +0.00000000000E+000
+2.72147812500E+008, -7.57241376404E+001, +0.00000000000E+000
+2.74022625000E+008, -7.36592535811E+001, +0.00000000000E+000
+2.75897437500E+008, -7.19988027344E+001, +0.00000000000E+000
+2.77772250000E+008, -7.14672622998E+001, +0.00000000000E+000
+2.79647062500E+008, -7.32128150818E+001, +0.00000000000E+000
+2.81521875000E+008, -7.61907337920E+001, +0.00000000000E+000
+2.83396687500E+008, -7.95701406630E+001, +0.00000000000E+000
+2.85271500000E+008, -8.31296298404E+001, +0.00000000000E+000
+2.87146312500E+008, -8.67455014218E+001, +0.00000000000E+000
+2.89021125000E+008, -9.03845002556E+001, +0.00000000000E+000
+2.90895937500E+008, -9.39656374247E+001, +0.00000000000E+000
+2.92770750000E+008, -9.74976131388E+001, +0.00000000000E+000
+2.94645562500E+008, -1.00908821215E+002, +0.00000000000E+000
+2.96520375000E+008, -1.04194984498E+002, +0.00000000000E+000
+2.98395187500E+008, -1.07263605968E+002, +0.00000000000E+000
+3.00270000000E+008, -1.10104003757E+002, +0.00000000000E+000
+3.02144812500E+008, -1.12634124541E+002, +0.00000000000E+000
+3.04019625000E+008, -1.14838569608E+002, +0.00000000000E+000
+3.05894437500E+008, -1.16605400789E+002, +0.00000000000E+000
+3.07769250000E+008, -1.17961294747E+002, +0.00000000000E+000
+3.09644062500E+008, -1.18897930874E+002, +0.00000000000E+000
+3.11518875000E+008, -1.19491353888E+002, +0.00000000000E+000
+3.13393687500E+008, -1.19778164394E+002, +0.00000000000E+000
+3.15268500000E+008, -1.19844199528E+002, +0.00000000000E+000
+3.17143312500E+008, -1.19686869153E+002, +0.00000000000E+000
+3.19018125000E+008, -1.19418682745E+002, +0.00000000000E+000
+3.20892937500E+008, -1.19036118934E+002, +0.00000000000E+000
+3.22767750000E+008, -1.18583815513E+002, +0.00000000000E+000
+3.24642562500E+008, -1.18068873829E+002, +0.00000000000E+000
+3.26517375000E+008, -1.17543462386E+002, +0.00000000000E+000
+3.28392187500E+008, -1.17005403303E+002, +0.00000000000E+000
+3.30267000000E+008, -1.16480175383E+002, +0.00000000000E+000
+3.32141812500E+008, -1.15997937499E+002, +0.00000000000E+000
+3.34016625000E+008, -1.15572484186E+002, +0.00000000000E+000
+3.35891437500E+008, -1.15211835624E+002, +0.00000000000E+000
+3.37766250000E+008, -1.14966051105E+002, +0.00000000000E+000
+3.39641062500E+008, -1.14833866986E+002, +0.00000000000E+000
+3.41515875000E+008, -1.14877504752E+002, +0.00000000000E+000
+3.43390687500E+008, -1.15130557843E+002, +0.00000000000E+000
+3.45265500000E+008, -1.15662887620E+002, +0.00000000000E+000
+3.47140312500E+008, -1.16510226372E+002, +0.00000000000E+000
+3.49015125000E+008, -1.17748134176E+002, +0.00000000000E+000
+3.50889937500E+008, -1.19422900156E+002, +0.00000000000E+000
+3.52764750000E+008, -1.21642270311E+002, +0.00000000000E+000
+3.54639562500E+008, -1.24422234673E+002, +0.00000000000E+000
+3.56514375000E+008, -1.27735911611E+002, +0.00000000000E+000
+3.58389187500E+008, -1.31559518212E+002, +0.00000000000E+000
+3.60264000000E+008, -1.35867638653E+002, +0.00000000000E+000
+3.62138812500E+008, -1.40604779433E+002, +0.00000000000E+000
+3.64013625000E+008, -1.45759445221E+002, +0.00000000000E+000
+3.65888437500E+008, -1.51262537794E+002, +0.00000000000E+000
+3.67763250000E+008, -1.57121949992E+002, +0.00000000000E+000
+3.69638062500E+008, -1.63309168218E+002, +0.00000000000E+000
+3.71512875000E+008, -1.69807179582E+002, +0.00000000000E+000
+3.73387687500E+008, -1.76586557175E+002, +0.00000000000E+000
+3.75262500000E+008, +1.76370762339E+002, +0.00000000000E+000
+3.77137312500E+008, +1.69082126335E+002, +0.00000000000E+000
+3.79012125000E+008, +1.61566179596E+002, +0.00000000000E+000
+3.80886937500E+008, +1.53879629377E+002, +0.00000000000E+000
+3.82761750000E+008, +1.46027178755E+002, +0.00000000000E+000
+3.84636562500E+008, +1.38027815946E+002, +0.00000000000E+000
+3.86511375000E+008, +1.29909540977E+002, +0.00000000000E+000
+3.88386187500E+008, +1.21715186536E+002, +0.00000000000E+000
+3.90261000000E+008, +1.13453742612E+002, +0.00000000000E+000
+3.92135812500E+008, +1.05152683614E+002, +0.00000000000E+000
+3.94010625000E+008, +9.68276929977E+001, +0.00000000000E+000
+3.95885437500E+008, +8.85018924514E+001, +0.00000000000E+000
+3.97760250000E+008, +8.01963495397E+001, +0.00000000000E+000
+3.99635062500E+008, +7.19449547476E+001, +0.00000000000E+000
+4.01509875000E+008, +6.37572498273E+001, +0.00000000000E+000
+4.03384687500E+008, +5.56498787035E+001, +0.00000000000E+000
+4.05259500000E+008, +4.76476232388E+001, +0.00000000000E+000
+4.07134312500E+008, +3.97868099506E+001, +0.00000000000E+000
+4.09009125000E+008, +3.20818691187E+001, +0.00000000000E+000
+4.10883937500E+008, +2.45470724358E+001, +0.00000000000E+000
+4.12758750000E+008, +1.72081418019E+001, +0.00000000000E+000
+4.14633562500E+008, +1.00854675432E+001, +0.00000000000E+000
+4.16508375000E+008, +3.18641631934E+000, +0.00000000000E+000
+4.18383187500E+008, -3.48053151269E+000, +0.00000000000E+000
+4.20258000000E+008, -9.91025153188E+000, +0.00000000000E+000
+4.22132812500E+008, -1.61078757443E+001, +0.00000000000E+000
+4.24007625000E+008, -2.20739745292E+001, +0.00000000000E+000
+4.25882437500E+008, -2.77926548776E+001, +0.00000000000E+000
+4.27757250000E+008, -3.33066107756E+001, +0.00000000000E+000
+4.29632062500E+008, -3.86237432240E+001, +0.00000000000E+000
+4.31506875000E+008, -4.37100938962E+001, +0.00000000000E+000
+4.33381687500E+008, -4.85833597883E+001, +0.00000000000E+000
+4.35256500000E+008, -5.32304701400E+001, +0.00000000000E+000
+4.37131312500E+008, -5.76170838115E+001, +0.00000000000E+000
+4.39006125000E+008, -6.17345159775E+001, +0.00000000000E+000
+4.40880937500E+008, -6.54980483481E+001, +0.00000000000E+000
+4.42755750000E+008, -6.88349402850E+001, +0.00000000000E+000
+4.44630562500E+008, -7.16165622722E+001, +0.00000000000E+000
+4.46505375000E+008, -7.37257581607E+001, +0.00000000000E+000
+4.48380187500E+008, -7.50479251108E+001, +0.00000000000E+000
+4.50255000000E+008, -7.56856113981E+001, +0.00000000000E+000
+4.52129812500E+008, -7.57129239808E+001, +0.00000000000E+000
+4.54004625000E+008, -7.53504289041E+001, +0.00000000000E+000
+4.55879437500E+008, -7.46394457038E+001, +0.00000000000E+000
+4.57754250000E+008, -7.36886394471E+001, +0.00000000000E+000
+4.59629062500E+008, -7.25438910209E+001, +0.00000000000E+000
+4.61503875000E+008, -7.12604988252E+001, +0.00000000000E+000
+4.63378687500E+008, -6.98584587009E+001, +0.00000000000E+000
+4.65253500000E+008, -6.83923649433E+001, +0.00000000000E+000
+4.67128312500E+008, -6.68389960095E+001, +0.00000000000E+000
+4.69003125000E+008, -6.52321765206E+001, +0.00000000000E+000
+4.70877937500E+008, -6.35857653132E+001, +0.00000000000E+000
+4.72752750000E+008, -6.19164343617E+001, +0.00000000000E+000
+4.74627562500E+008, -6.02427537172E+001, +0.00000000000E+000
+4.76502375000E+008, -5.85556394847E+001, +0.00000000000E+000
+4.78377187500E+008, -5.68936568848E+001, +0.00000000000E+000
+4.80252000000E+008, -5.52759949352E+001, +0.00000000000E+000
+4.82126812500E+008, -5.37322903402E+001, +0.00000000000E+000
+4.84001625000E+008, -5.22957547398E+001, +0.00000000000E+000
+4.85876437500E+008, -5.10022635689E+001, +0.00000000000E+000
+4.87751250000E+008, -4.99389360044E+001, +0.00000000000E+000
+4.89626062500E+008, -4.91987524174E+001, +0.00000000000E+000
+4.91500875000E+008, -4.89050758836E+001, +0.00000000000E+000
+4.93375687500E+008, -4.92011492319E+001, +0.00000000000E+000
+4.95250500000E+008, -5.01816306386E+001, +0.00000000000E+000
+4.97125312500E+008, -5.17738411909E+001, +0.00000000000E+000
+4.99000125000E+008, -5.38910992759E+001, +0.00000000000E+000
+5.00874937500E+008, -5.63359676141E+001, +0.00000000000E+000
+5.02749750000E+008, -5.90483193411E+001, +0.00000000000E+000
+5.04624562500E+008, -6.19389233158E+001, +0.00000000000E+000
+5.06499375000E+008, -6.49552806591E+001, +0.00000000000E+000
+5.08374187500E+008, -6.80550730746E+001, +0.00000000000E+000
+5.10249000000E+008, -7.12051360525E+001, +0.00000000000E+000
+5.12123812500E+008, -7.43802625056E+001, +0.00000000000E+000
+5.13998625000E+008, -7.75752171034E+001, +0.00000000000E+000
+5.15873437500E+008, -8.07777436266E+001, +0.00000000000E+000
+5.17748250000E+008, -8.39678281978E+001, +0.00000000000E+000
+5.19623062500E+008, -8.71505892648E+001, +0.00000000000E+000
+5.21497875000E+008, -9.03007156401E+001, +0.00000000000E+000
+5.23372687500E+008, -9.34238189788E+001, +0.00000000000E+000
+5.25247500000E+008, -9.65023005453E+001, +0.00000000000E+000
+5.27122312500E+008, -9.95366412254E+001, +0.00000000000E+000
+5.28997125000E+008, -1.02518130680E+002, +0.00000000000E+000
+5.30871937500E+008, -1.05448311958E+002, +0.00000000000E+000
+5.32746750000E+008, -1.08311410726E+002, +0.00000000000E+000
+5.34621562500E+008, -1.11115998752E+002, +0.00000000000E+000
+5.36496375000E+008, -1.13839332273E+002, +0.00000000000E+000
+5.38371187500E+008, -1.16492586960E+002, +0.00000000000E+000
+5.40246000000E+008, -1.19066237497E+002, +0.00000000000E+000
+5.42120812500E+008, -1.21562000487E+002, +0.00000000000E+000
+5.43995625000E+008, -1.23971505353E+002, +0.00000000000E+000
+5.45870437500E+008, -1.26301280099E+002, +0.00000000000E+000
+5.47745250000E+008, -1.28541147891E+002, +0.00000000000E+000
+5.49620062500E+008, -1.30701511578E+002, +0.00000000000E+000
+5.51494875000E+008, -1.32771762860E+002, +0.00000000000E+000
+5.53369687500E+008, -1.34768785025E+002, +0.00000000000E+000
+5.55244500000E+008, -1.36679334424E+002, +0.00000000000E+000
+5.57119312500E+008, -1.38521174327E+002, +0.00000000000E+000
+5.58994125000E+008, -1.40292612611E+002, +0.00000000000E+000
+5.60868937500E+008, -1.42001513740E+002, +0.00000000000E+000
+5.62743750000E+008, -1.43650683361E+002, +0.00000000000E+000
+5.64618562500E+008, -1.45253381663E+002, +0.00000000000E+000
+5.66493375000E+008, -1.46815794553E+002, +0.00000000000E+000
+5.68368187500E+008, -1.48345686028E+002, +0.00000000000E+000
+5.70243000000E+008, -1.49847700014E+002, +0.00000000000E+000
+5.72117812500E+008, -1.51337580088E+002, +0.00000000000E+000
+5.73992625000E+008, -1.52821155581E+002, +0.00000000000E+000
+5.75867437500E+008, -1.54303894725E+002, +0.00000000000E+000
+5.77742250000E+008, -1.55795431166E+002, +0.00000000000E+000
+5.79617062500E+008, -1.57313492642E+002, +0.00000000000E+000
+5.81491875000E+008, -1.58855625330E+002, +0.00000000000E+000
+5.83366687500E+008, -1.60443994417E+002, +0.00000000000E+000
+5.85241500000E+008, -1.62070081098E+002, +0.00000000000E+000
+5.87116312500E+008, -1.63759829980E+002, +0.00000000000E+000
+5.88991125000E+008, -1.65512455851E+002, +0.00000000000E+000
+5.90865937500E+008, -1.67333798753E+002, +0.00000000000E+000
